2013-07-21 19:25:10
64.0
-0.0
-0.0
-0.0
-0.0
-0.0
-0.0
-0.0
-0.0
-0.0
-0.0
0.0
0.01
0.01
-0.0
-0.03
-0.05
-0.05
0.0
0.13
0.36
0.66
1.01
1.37
1.72
2.06
2.4
2.79
3.24
3.8
4.42
5.06
5.66
6.2
6.68
7.15
7.68
8.31
9.14
10.09
11.04
11.88
12.56
13.14
13.76
14.65
15.96
17.91
20.32
22.9
25.38
27.58
29.57
31.68
34.32
37.81
42.54
48.15
54.1
59.83
64.97
69.58
74.14
79.34
85.71
93.76
103.0
112.62
121.73
129.77
136.75
143.3
150.75
157.77
166.64
177.95
191.79
206.97
220.57
228.25
225.36
208.53
176.87
132.76
80.05
23.07
-34.94
-92.44
-149.16
-205.23
-260.37
-313.74
-363.87
-409.83
-450.91
-486.5
-515.74
-537.23
-549.22
-549.96
-538.37
-514.21
-478.67
-433.88
-382.45
-327.02
-269.84
-212.63
-156.66
-102.95
-52.37
-5.9
35.58
71.43
101.35
125.5
144.38
158.69
169.15
176.37
180.75
182.57
182.07
179.51
175.23
169.65
163.18
156.15
148.81
141.3
133.69
126.02
118.33
110.69
103.16
95.8
88.68
81.83
75.25
68.95
62.95
57.25
51.86
46.78
42.03
37.59
33.45
29.61
26.07
22.81
19.83
17.11
14.67
12.48
10.54
8.83
7.35
6.07
4.97
4.05
3.27
2.62
2.09
1.65
1.3
1.01
0.79
0.61
0.48
0.38
0.3
0.25
0.22
0.2
0.19
0.2
0.22
0.24
0.27
0.3
0.34
0.38
0.42
0.47
0.51
0.56
0.61
0.67
0.72
0.79
0.86
0.93
1.02
1.11
1.21
1.33
1.45
1.59
1.75
1.92
2.12
2.33
2.57
2.84
3.13
3.45
3.8
4.18
4.6
5.06
5.55
6.08
6.66
7.27
7.93
8.63
9.37
10.16
11.0
11.89
12.81
13.79
14.83
15.94
17.1
18.33
19.59
20.87
22.1
23.21
24.11
24.68
24.8
24.37
23.3
21.54
19.12
16.06
12.47
8.51
4.34
0.18
-3.79
-7.39
-10.49
-13.0
-14.88
-16.13
-16.81
-16.99
-16.78
-16.27
-15.51
-14.58
-13.49
-12.27
-10.93
-9.45
-7.87
-6.22
-4.46
-2.59
-0.58
1.58
3.87
6.28
8.81
11.31
13.71
16.03
18.3
20.58
22.96
25.51
28.25
31.3
34.43
37.57
40.77
44.15
47.85
51.97
56.56
61.58
67.05
72.53
77.82
82.98
88.16
93.6
99.36
105.31
111.2
116.72
120.99
123.55
124.34
123.5
121.17
117.06
110.22
98.63
84.26
67.24
47.76
26.36
3.85
-18.86
-41.11
-62.64
-83.54
-104.12
-125.65
-149.27
-175.8
-205.27
-236.3
-265.91
-289.91
-304.06
-305.38
-293.75
-271.57
-243.03
-213.01
-185.65
-163.75
-148.47
-139.62
-135.95
-135.96
-137.81
-139.73
-140.39
-139.21
-136.24
-131.94
-126.68
-120.54
-113.22
-103.85
-90.98
-72.92
-48.17
-16.3
21.32
61.24
98.51
127.97
145.92
151.34
146.06
133.84
118.84
104.35
92.11
82.62
75.77
71.51
69.84
70.37
71.88
72.26
68.91
59.83
44.51
24.34
2.25
-18.35
-34.83
-46.08
-52.63
-56.05
-58.08
-60.0
-62.41
-65.48
-69.18
-73.1
-76.16
-76.4
-71.5
-59.76
-41.13
-17.65
7.13
29.45
46.72
58.18
64.54
67.01
66.47
63.45
58.83
54.7
54.37
61.44
78.05
103.42
133.61
162.52
184.02
193.99
191.52
178.74
159.54
137.91
116.59
96.72
78.09
59.98
41.83
23.69
6.2
-9.68
-23.05
-33.6
-41.78
-48.77
-55.99
-64.38
-73.63
-81.8
-85.59
-81.4
-66.77
-41.63
-8.89
26.18
57.2
78.3
85.48
77.5
56.49
27.76
-1.06
-22.09
-29.65
-22.35
-3.69
19.25
38.47
47.84
44.78
30.39
8.13
-17.67
-42.89
-63.95
-78.12
-83.95
-81.77
-73.89
-63.68
-53.94
-45.31
-35.9
-22.39
-2.2
24.59
54.67
82.61
102.97
112.39
110.4
99.02
81.51
60.99
39.68
18.78
-1.24
-20.01
-36.83
-50.5
-59.48
-62.44
-59.06
-50.66
-40.14
-31.3
-27.45
-30.27
-39.32
-52.51
-67.12
-80.88
-92.5
-101.47
-107.74
-111.2
-111.64
-108.97
-103.56
-96.31
-88.07
-78.82
-67.12
-50.35
-26.0
6.57
44.9
83.62
116.15
137.24
144.91
141.04
130.02
116.64
104.22
93.9
85.33
77.8
71.1
65.46
60.82
56.03
48.81
36.53
17.69
-6.93
-34.04
-58.87
-76.93
-85.65
-85.19
-78.03
-67.72
-57.43
-49.06
-43.05
-38.78
-35.16
-31.17
-26.13
-19.85
-12.76
-6.05
-1.56
-1.59
-8.06
-21.37
-39.4
-57.17
-68.0
-65.66
-46.98
-13.49
28.75
71.11
105.36
126.2
132.44
126.36
112.17
94.21
75.79
58.77
43.7
30.15
17.17
3.8
-10.44
-25.08
-38.77
-49.69
-56.32
-57.99
-55.17
-49.18
-41.74
-34.39
-28.18
-23.52
-20.3
-18.06
-16.2
-14.16
-11.45
-7.75
-2.91
3.0
9.64
16.41
22.66
28.0
32.53
36.86
41.91
48.33
56.09
64.41
72.1
78.12
82.04
84.07
84.65
83.84
81.04
75.1
65.02
50.59
32.82
13.86
-3.67
-17.34
-25.56
-27.78
-24.46
-16.88
-6.8
3.84
13.17
19.64
22.25
20.65
15.17
6.82
-2.86
-12.1
-19.24
-23.29
-24.22
-23.07
-21.57
-21.5
-23.97
-29.0
-35.57
-42.12
-47.28
-50.41
-51.71
-52.04
-52.35
-53.15
-54.37
-55.38
-55.54
-54.56
-52.75
-50.87
-49.69
-49.55
-50.1
-50.43
-49.47
-46.44
-41.2
-34.26
-26.59
-19.24
-13.08
-8.57
-5.77
-4.46
-4.29
-4.89
-5.95
-7.21
-8.47
-9.52
-10.23
-10.51
-10.45
-10.23
-10.15
-10.41
-11.13
-12.31
-13.93
-16.1
-19.0
-22.85
-27.61
-32.96
-38.38
-43.38
-47.75
-51.67
-55.45
-59.22
-62.64
-64.94
-65.29
-63.18
-58.61
-51.87
-43.13
-32.09
-17.75
1.2
25.82
56.16
90.83
126.77
159.71
184.83
197.73
195.52
177.7
146.69
107.58
67.13
32.08
7.34
-5.28
-7.38
-3.13
2.41
5.06
2.71
-4.35
-14.05
-23.58
-30.32
-32.57
-29.91
-23.23
-14.47
-6.05
-0.1
2.31
1.49
-1.02
-3.22
-3.47
-1.2
3.0
7.74
11.5
13.21
12.53
9.77
5.67
1.05
-3.38
-7.18
-10.13
-12.31
-13.91
-15.26
-16.69
-18.56
-21.08
-24.35
-28.2
-32.28
-35.99
-38.56
-38.99
-36.26
-29.44
-18.2
-3.09
14.28
31.5
45.8
54.88
57.54
54.12
46.52
37.7
30.86
28.46
31.42
38.93
48.7
57.85
63.91
65.47
62.46
55.79
46.88
37.26
28.4
21.67
18.06
18.02
21.1
25.94
30.71
33.69
33.86
31.2
26.42
20.57
14.56
8.96
4.0
-0.05
-2.89
-4.11
-3.52
-1.35
1.57
4.06
5.07
4.12
1.54
-1.76
-4.76
-6.89
-8.28
-9.53
-11.3
-13.76
-16.45
-18.46
-19.0
-17.7
-14.82
-11.14
-7.61
-5.16
-4.35
-5.25
-7.28
-9.21
-9.4
-6.29
0.97
12.19
26.05
40.69
54.44
66.43
76.8
86.27
95.41
104.12
111.64
116.94
119.53
120.01
119.89
120.88
123.78
127.65
129.68
126.06
112.98
87.67
49.12
-1.56
-60.68
-121.7
-175.59
-212.41
-224.02
-207.2
-165.38
-108.09
-47.94
3.6
39.53
58.22
62.02
54.39
37.81
13.23
-18.97
-57.47
-99.41
-140.85
-178.15
-209.13
-233.64
-253.06
-269.25
-283.52
-296.13
-306.45
-313.53
-316.74
-316.13
-312.15
-305.12
-294.82
-280.47
-261.24
-236.91
-208.29
-177.06
-145.06
-113.6
-83.09
-53.26
-23.81
5.3
33.76
61.31
88.03
114.33
140.7
167.58
195.54
225.65
259.52
299.0
344.89
395.76
447.42
493.6
527.65
544.72
543.23
525.1
494.78
457.28
416.62
375.04
333.24
291.06
248.13
204.23
159.13
113.15
67.13
23.08
-16.08
-47.65
-70.57
-86.16
-97.7
-108.9
-120.42
-130.21
-133.98
-127.58
-109.53
-82.07
-50.55
-21.38
-0.88
8.2
3.86
-14.55
-46.73
-91.47
-146.16
-206.71
-267.84
-325.55
-374.36
-412.98
-442.76
-466.52
-486.48
-502.28
-510.08
-503.06
-475.46
-420.47
-338.93
-238.06
-130.34
-30.3
49.72
102.64
138.31
146.93
138.62
120.38
97.18
72.3
48.49
28.53
14.69
7.87
5.34
6.71
9.69
13.5
19.03
27.88
41.17
58.99
80.56
103.27
126.83
148.72
165.82
174.85
173.3
160.38
137.6
108.79
78.52
53.31
37.67
33.91
41.43
56.58
73.39
85.13
86.15
73.36
48.35
15.92
-16.7
-41.83
-53.58
-49.59
-31.62
-4.73
24.51
50.86
71.38
85.44
93.85
97.44
96.44
90.81
80.99
68.5
55.75
45.17
38.17
34.64
33.25
32.24
30.29
26.99
22.63
17.63
12.03
5.39
-2.73
-12.08
-21.28
-27.92
-29.45
-24.4
-13.3
1.03
14.33
22.45
22.84
15.44
2.48
-12.65
-26.8
-38.01
-45.79
-50.67
-53.5
-55.03
-55.8
-56.19
-56.5
-56.82
-56.89
-55.99
-53.24
-47.99
-40.18
-30.54
-20.31
-10.82
-3.1
2.38
5.64
6.98
6.74
5.08
2.04
-2.36
-7.84
-13.72
-18.91
-22.14
-22.48
-19.66
-14.23
-7.35
-0.41
5.45
9.6
11.88
12.4
11.4
9.22
6.3
3.32
0.97
-0.24
-0.19
0.74
1.9
2.64
2.55
1.58
-0.05
-1.94
-3.7
-5.02
-5.74
-5.92
-5.83
-5.98
-7.01
-9.5
-13.68
-19.19
-24.97
-29.48
-31.03
-28.42
-21.34
-10.49
2.6
16.14
28.54
38.75
46.41
51.58
54.68
56.23
56.78
56.85
56.78
56.61
55.94
54.13
50.52
44.8
37.26
28.75
20.39
13.17
7.6
3.63
1.0
-0.53
-0.93
0.01
2.3
5.4
8.22
9.44
8.02
3.66
-3.18
-11.58
-20.63
-29.63
-38.01
-45.01
-49.55
-50.58
-47.53
-40.97
-32.64
-24.95
-20.16
-19.55
-23.08
-29.55
-37.21
-44.27
-49.34
-51.56
-50.58
-46.51
-39.82
-31.33
-22.0
-12.84
-4.68
1.9
6.6
9.42
10.6
10.49
9.59
8.33
7.1
6.18
5.77
6.04
7.04
8.78
11.08
13.63
16.03
17.89
18.91
18.94
18.04
16.38
14.2
11.83
9.6
7.78
6.55
5.81
5.24
4.35
2.74
0.27
-2.78
-5.84
-8.17
-9.28
-9.05
-7.84
-6.34
-5.33
-5.51
-7.25
-10.58
-15.15
-20.33
-25.35
-29.25
-30.99
-29.65
-24.64
-16.06
-4.88
7.13
17.93
25.82
29.94
30.47
28.35
24.66
20.26
15.5
10.49
5.41
0.69
-3.0
-5.08
-5.27
-3.78
-1.19
1.79
4.51
6.55
7.76
8.14
7.74
6.63
4.86
2.52
-0.25
-3.21
-6.14
-8.83
-11.16
-13.07
-14.61
-15.89
-17.09
-18.51
-20.45
-23.14
-26.74
-31.25
-36.56
-42.58
-49.17
-56.02
-62.39
-67.02
-68.27
-64.57
-55.1
-40.26
-21.66
-1.72
17.13
33.04
44.97
52.56
55.82
54.91
50.38
43.34
35.58
29.28
26.25
27.24
31.49
37.03
41.38
42.56
39.78
33.62
25.65
17.7
11.22
6.81
4.26
2.92
2.04
1.18
0.21
-0.84
-1.92
-2.99
-3.98
-4.68
-4.75
-3.94
-2.35
-0.56
0.44
-0.43
-3.87
-9.9
-17.67
-25.67
-32.15
-35.63
-35.39
-31.57
-25.03
-17.0
-8.58
-0.5
6.89
13.47
19.17
23.79
27.14
29.09
29.71
29.22
27.85
25.77
23.0
19.49
15.29
10.58
5.77
1.44
-1.88
-3.84
-4.52
-4.46
-4.36
-4.94
-6.6
-9.34
-12.82
-16.62
-20.39
-23.97
-27.35
-30.56
-33.63
-36.53
-39.25
-41.83
-44.25
-46.34
-47.69
-47.68
-45.69
-41.39
-34.88
-26.79
-18.01
-9.41
-1.7
4.77
9.84
13.53
15.93
17.24
17.73
17.76
17.73
17.88
18.27
18.8
19.26
19.51
19.5
19.32
19.11
18.98
18.93
18.86
18.52
17.57
15.71
12.76
8.81
4.17
-0.65
-5.15
-9.03
-12.3
-15.24
-18.34
-21.99
-26.32
-31.12
-35.82
-39.63
-41.71
-41.38
-38.32
-32.68
-25.05
-16.34
-7.54
0.45
6.98
11.66
14.35
15.18
14.54
13.1
11.74
11.39
12.81
16.34
21.78
28.53
35.62
42.06
47.01
50.0
50.87
49.78
47.04
42.99
37.9
32.01
25.48
18.61
11.8
5.44
-0.13
-4.82
-8.8
-12.39
-15.97
-19.78
-23.88
-28.16
-32.27
-35.74
-37.93
-38.13
-35.79
-30.74
-23.32
-14.39
-5.1
3.49
10.65
16.14
20.09
22.83
24.72
26.06
27.11
28.12
29.33
31.02
33.45
36.73
40.84
45.54
50.47
55.29
59.75
63.88
67.77
71.51
74.91
77.51
78.7
78.03
75.47
71.51
66.97
62.7
59.24
56.58
54.12
50.94
45.9
38.08
26.97
12.69
-3.98
-21.72
-38.93
-54.12
-66.08
-74.11
-78.05
-78.25
-75.51
-71.03
-66.15
-62.16
-60.03
-60.12
-62.14
-65.11
-67.68
-68.48
-66.59
-61.83
-54.92
-47.14
-39.96
-34.44
-31.03
-29.57
-29.53
-30.43
-31.93
-33.91
-36.3
-38.97
-41.68
-44.17
-46.28
-47.99
-49.38
-50.56
-51.53
-52.23
-52.57
-52.56
-52.39
-52.48
-53.35
-55.43
-58.72
-62.66
-66.14
-67.76
-66.37
-61.39
-53.14
-42.68
-31.45
-20.84
-11.81
-4.79
0.21
3.41
5.09
5.47
4.83
3.53
1.98
0.65
-0.19
-0.49
-0.47
-0.53
-1.05
-2.25
-4.03
-6.12
-8.16
-9.84
-11.08
-12.03
-12.99
-14.23
-15.83
-17.49
-18.57
-18.2
-15.67
-10.72
-3.82
3.82
10.62
15.04
16.15
13.8
8.67
1.97
-4.87
-10.4
-13.38
-12.82
-8.1
0.84
13.39
28.36
44.15
59.23
72.48
83.35
91.88
98.47
103.72
108.15
112.3
116.62
121.5
127.13
133.45
139.96
145.83
149.98
151.28
148.8
142.02
130.81
115.51
96.78
75.56
52.91
29.97
7.8
-12.69
-30.98
-46.93
-60.81
-73.15
-84.56
-95.43
-105.85
-115.61
-124.33
-131.64
-137.17
-140.55
-141.34
-138.96
-132.91
-122.9
-109.09
-92.08
-72.77
-52.1
-30.92
-10.02
9.8
27.45
41.63
51.02
54.8
52.87
46.11
36.1
24.77
13.97
5.18
-0.56
-2.65
-0.99
3.97
11.21
19.28
26.62
32.08
35.22
36.31
36.1
35.37
34.58
33.76
32.59
30.67
27.72
23.73
19.0
14.11
9.71
6.3
4.03
2.63
1.48
-0.12
-2.59
-5.91
-9.55
-12.65
-14.28
-13.67
-10.41
-4.62
2.95
11.06
18.18
22.89
24.26
22.12
17.02
10.08
2.53
-4.62
-10.8
-15.86
-19.91
-23.17
-25.74
-27.61
-28.72
-29.04
-28.61
-27.68
-26.46
-25.2
-24.0
-22.86
-21.67
-20.35
-18.89
-17.29
-15.66
-14.07
-12.59
-11.21
-9.98
-9.02
-8.55
-8.92
-10.44
-13.31
-17.5
-22.67
-28.13
-32.99
-36.18
-36.67
-33.67
-26.89
-16.64
-3.87
10.12
23.88
36.18
46.13
53.23
57.29
58.44
57.07
53.89
49.81
45.82
42.74
40.96
40.42
40.65
41.02
40.99
40.21
38.58
36.17
33.12
29.46
25.16
20.13
14.4
8.19
1.95
-3.76
-8.5
-12.14
-14.97
-17.6
-20.77
-24.96
-30.24
-36.17
-41.84
-46.17
-48.07
-46.76
-41.95
-33.87
-23.34
-11.57
0.14
10.62
19.09
25.26
29.17
31.07
31.27
30.08
27.85
25.0
21.94
19.11
16.78
15.03
13.73
12.66
11.57
10.26
8.65
6.71
4.47
1.96
-0.79
-3.75
-6.92
-10.3
-13.8
-17.31
-20.58
-23.34
-25.34
-26.42
-26.61
-26.03
-24.78
-22.7
-19.38
-14.14
-6.42
4.0
16.74
30.79
44.86
57.68
68.35
76.47
82.03
85.1
85.67
83.59
78.75
71.4
62.29
52.62
43.73
36.63
31.73
28.75
26.98
25.7
24.41
23.01
21.56
20.17
18.78
17.26
15.55
13.67
11.69
9.58
7.1
3.77
-0.76
-6.66
-13.72
-21.47
-29.33
-36.8
-43.52
-49.1
-53.09
-54.99
-54.44
-51.43
-46.41
-40.3
-34.12
-28.78
-24.81
-22.28
-20.88
-20.13
-19.55
-18.89
-18.11
-17.34
-16.71
-16.21
-15.61
-14.61
-12.98
-10.73
-8.12
-5.56
-3.47
-2.14
-1.66
-1.91
-2.71
-3.77
-4.82
-5.66
-6.24
-6.71
-7.35
-8.53
-10.56
-13.52
-17.19
-20.99
-24.04
-25.33
-23.99
-19.47
-11.83
-1.79
9.46
20.62
30.52
38.51
44.49
48.82
51.97
54.3
55.79
56.13
54.86
51.79
47.12
41.43
35.45
29.7
24.35
19.18
13.93
8.54
3.27
-1.46
-5.33
-8.32
-10.71
-12.9
-15.12
-17.35
-19.47
-21.45
-23.57
-26.39
-30.52
-36.17
-42.88
-49.46
-54.25
-55.63
-52.57
-45.01
-33.88
-20.78
-7.48
4.54
14.48
22.2
28.08
32.75
36.77
40.52
44.03
47.06
49.08
49.42
47.44
42.67
35.04
25.12
14.07
3.54
-4.67
-9.13
-9.14
-4.93
2.37
11.09
19.35
25.46
28.1
26.48
20.41
10.45
-2.18
-15.65
-27.95
-37.23
-42.25
-42.64
-38.88
-32.17
-24.02
-15.85
-8.64
-2.7
2.22
6.66
10.98
15.08
18.26
19.49
17.8
12.81
5.02
-4.11
-12.54
-18.25
-19.87
-17.05
-10.62
-2.09
6.8
14.59
20.27
23.28
23.37
20.52
15.09
7.81
-0.22
-7.79
-13.9
-17.88
-19.36
-18.21
-14.64
-9.34
-3.67
0.63
1.98
-0.32
-5.73
-12.71
-19.46
-24.78
-28.47
-31.16
-33.75
-36.8
-40.33
-44.02
-47.61
-51.15
-54.91
-59.08
-63.34
-66.68
-67.74
-65.13
-58.2
-47.26
-33.64
-19.27
-6.04
4.68
12.4
17.38
20.29
21.83
22.41
22.2
21.23
19.67
17.83
16.16
15.02
14.6
14.88
15.72
17.0
18.68
20.72
22.96
25.07
26.6
27.1
26.36
24.51
21.93
19.04
16.18
13.44
10.77
8.08
5.42
2.99
1.07
-0.14
-0.74
-1.16
-2.02
-3.9
-7.03
-11.14
-15.49
-19.19
-21.57
-22.54
-22.63
-22.77
-23.9
-26.53
-30.41
-34.61
-37.63
-37.8
-33.69
-24.48
-10.16
8.33
29.18
50.01
68.29
81.88
89.52
90.97
86.89
78.32
66.32
51.66
35.02
17.35
0.23
-14.17
-23.6
-26.59
-23.12
-14.79
-4.21
5.94
13.88
19.13
22.36
24.63
26.71
28.69
30.06
30.2
28.89
26.57
24.12
22.47
22.02
22.45
22.8
21.92
18.99
13.9
7.2
-0.19
-7.49
-14.42
-21.25
-28.56
-36.83
-46.1
-55.87
-65.19
-72.95
-78.09
-79.85
-77.9
-72.54
-64.6
-55.39
-46.21
-37.92
-30.64
-23.72
-16.2
-7.39
2.68
13.18
22.74
30.04
34.24
35.17
33.24
29.12
23.51
17.11
10.61
4.75
0.27
-2.23
-2.52
-0.83
2.26
6.02
9.74
12.96
15.36
16.78
17.16
16.52
15.0
12.82
10.24
7.4
4.28
0.72
-3.4
-8.1
-13.24
-18.64
-24.25
-30.11
-36.31
-42.79
-49.13
-54.57
-58.15
-59.07
-56.87
-51.75
-44.39
-35.8
-27.05
-18.96
-12.01
-6.35
-1.86
1.68
4.39
6.39
7.68
8.34
8.48
8.27
7.79
6.99
5.71
3.84
1.58
-0.47
-1.43
-0.4
3.17
9.12
16.69
24.58
31.37
35.84
37.26
35.5
30.98
24.53
17.06
9.39
1.97
-5.08
-11.96
-18.96
-26.3
-34.02
-41.84
-49.15
-55.05
-58.5
-58.59
-54.81
-47.34
-37.11
-25.61
-14.46
-4.95
2.24
7.1
10.08
11.72
12.45
12.5
12.01
11.19
10.33
9.83
9.97
10.78
11.99
13.15
13.86
13.91
13.35
12.41
11.35
10.34
9.37
8.3
6.9
5.0
2.53
-0.45
-3.71
-6.94
-9.83
-12.24
-14.32
-16.46
-19.18
-22.82
-27.27
-31.89
-35.53
-36.96
-35.26
-30.09
-21.88
-11.66
-0.75
9.59
18.39
25.06
29.4
31.43
31.33
29.33
25.79
21.14
15.92
10.78
6.26
2.77
0.44
-0.8
-1.22
-1.07
-0.56
0.17
0.97
1.67
1.98
1.72
0.91
-0.03
-0.36
0.76
3.93
9.17
15.86
22.9
28.97
32.9
33.93
31.78
26.74
19.6
11.61
4.3
-0.92
-3.05
-1.9
1.9
7.06
12.07
15.62
16.91
15.74
12.42
7.55
1.9
-3.76
-8.7
-12.27
-13.87
-13.05
-9.53
-3.39
4.93
14.66
24.86
34.59
43.19
50.26
55.63
59.21
60.87
60.43
57.81
53.16
46.88
39.57
31.82
23.92
15.91
7.61
-1.15
-10.33
-19.62
-28.41
-35.96
-41.46
-44.29
-44.04
-40.76
-35.0
-27.73
-20.23
-13.7
-8.98
-6.36
-5.56
-5.96
-6.79
-7.47
-7.68
-7.35
-6.6
-5.57
-4.31
-2.75
-0.76
1.8
4.99
8.83
13.29
18.44
24.35
30.99
38.06
44.94
50.79
54.91
57.02
57.37
56.5
54.92
52.74
49.63
45.02
38.47
30.0
20.03
9.29
-1.51
-11.68
-20.65
-27.82
-32.63
-34.75
-34.27
-31.78
-28.23
-24.68
-21.89
-20.25
-19.75
-20.15
-21.14
-22.47
-23.92
-25.35
-26.55
-27.3
-27.38
-26.68
-25.2
-23.09
-20.63
-18.1
-15.75
-13.74
-12.22
-11.36
-11.36
-12.37
-14.37
-17.04
-19.67
-21.41
-21.51
-19.66
-16.15
-11.78
-7.66
-4.81
-3.86
-4.9
-7.45
-10.56
-13.09
-13.95
-12.42
-8.4
-2.41
4.45
10.92
15.9
18.73
19.34
18.1
15.58
12.4
9.08
5.99
3.45
1.64
0.68
0.51
0.91
1.58
2.19
2.63
2.91
3.19
3.58
4.03
4.23
3.76
2.26
-0.35
-3.87
-7.85
-11.77
-15.24
-18.14
-20.55
-22.83
-25.38
-28.53
-32.34
-36.45
-40.09
-42.24
-41.9
-38.48
-32.0
-23.13
-12.97
-2.76
6.43
13.9
19.34
22.81
24.53
24.86
24.13
22.73
21.03
19.43
18.32
17.94
18.35
19.37
20.67
21.9
22.79
23.21
23.11
22.48
21.32
19.64
17.51
15.19
13.03
11.41
10.52
10.29
10.36
10.2
9.3
7.35
4.2
-0.03
-5.07
-10.44
-15.57
-19.73
-22.2
-22.39
-19.97
-15.02
-7.83
1.21
11.88
24.16
38.03
53.08
68.21
81.58
90.98
94.54
91.3
81.49
66.37
47.77
27.6
7.58
-10.76
-26.08
-37.31
-43.81
-45.68
-43.86
-39.9
-35.63
-32.65
-31.93
-33.71
-37.61
-42.83
-48.47
-53.85
-58.64
-62.87
-66.79
-70.48
-73.66
-75.65
-75.42
-71.89
-64.07
-51.14
-32.62
-8.69
19.37
48.89
75.98
96.38
106.7
105.55
93.93
74.84
52.07
29.14
8.69
-7.63
-18.83
-24.47
-24.72
-20.54
-13.64
-6.1
0.25
4.42
6.36
6.66
6.01
4.85
3.1
0.39
-3.74
-9.7
-17.74
-27.84
-39.48
-51.46
-61.96
-69.02
-71.15
-67.9
-59.91
-48.53
-35.2
-20.93
-6.34
8.05
21.37
32.36
39.67
42.46
40.78
35.6
28.38
20.55
13.11
6.53
0.91
-3.77
-7.45
-10.04
-11.5
-12.02
-12.12
-12.63
-14.41
-18.05
-23.54
-30.23
-36.99
-42.69
-46.67
-48.95
-50.27
-51.72
-54.32
-58.55
-64.19
-70.2
-74.89
-76.14
-71.86
-60.58
-42.04
-17.63
9.62
35.79
57.14
71.23
77.61
77.75
74.22
69.65
65.88
63.72
63.1
63.54
64.51
65.56
66.27
66.17
64.79
61.75
56.98
50.69
43.47
36.07
29.15
23.01
17.36
11.36
3.9
-5.94
-18.4
-32.86
-47.97
-62.21
-74.43
-84.11
-91.35
-96.4
-99.28
-99.5
-96.28
-88.9
-77.25
-61.99
-44.55
-26.73
-10.27
3.6
14.25
21.66
26.17
28.33
28.67
27.76
26.07
24.05
22.11
20.54
19.52
19.07
19.08
19.31
19.45
19.21
18.42
17.08
15.26
13.05
10.56
7.8
4.84
1.77
-1.22
-3.96
-6.36
-8.53
-10.73
-13.31
-16.59
-20.7
-25.55
-30.73
-35.57
-39.18
-40.62
-39.08
-34.19
-26.15
-15.77
-4.33
6.84
16.56
24.11
29.31
32.31
33.5
33.25
31.98
30.09
28.11
26.58
25.96
26.48
28.03
30.24
32.63
34.82
36.61
38.02
39.09
39.82
40.1
39.79
38.74
36.91
34.34
31.15
27.5
23.56
19.47
15.33
11.13
6.75
1.94
-3.49
-9.6
-16.05
-22.16
-26.97
-29.51
-29.06
-25.42
-18.99
-10.67
-1.68
6.72
13.49
17.94
19.85
19.39
17.11
13.71
9.94
6.41
3.57
1.64
0.65
0.48
0.84
1.39
1.82
1.92
1.67
1.18
0.55
-0.17
-1.12
-2.5
-4.45
-6.97
-9.82
-12.68
-15.25
-17.4
-19.22
-20.97
-23.02
-25.67
-29.0
-32.78
-36.45
-39.12
-39.84
-37.79
-32.63
-24.55
-14.33
-3.14
7.82
17.52
25.25
30.71
33.9
35.0
34.37
32.47
29.82
26.98
24.41
22.43
21.1
20.31
19.81
19.34
18.76
18.01
17.07
15.9
14.35
12.28
9.58
6.26
2.49
-1.45
-5.27
-8.78
-12.01
-15.17
-18.65
-22.9
-28.26
-34.78
-42.05
-49.23
-55.16
-58.7
-59.04
-55.92
-49.61
-40.65
-29.65
-17.22
-3.97
9.41
22.11
33.32
42.33
48.69
52.08
52.36
49.58
44.12
36.78
28.82
21.57
15.99
12.31
10.06
8.38
6.51
4.17
1.5
-1.17
-3.64
-5.93
-8.28
-10.86
-13.7
-16.79
-20.14
-23.91
-28.3
-33.31
-38.5
-43.01
-45.68
-45.52
-41.95
-35.12
-25.79
-15.18
-4.64
4.63
11.84
16.7
19.36
20.24
19.9
18.73
17.0
14.83
12.4
10.0
7.99
6.69
6.25
6.52
7.12
7.61
7.63
7.01
5.75
3.97
1.84
-0.51
-3.0
-5.61
-8.35
-11.28
-14.5
-18.15
-22.27
-26.77
-31.26
-35.02
-37.16
-36.77
-33.3
-26.76
-17.79
-7.5
2.79
11.95
19.2
24.21
27.03
27.91
27.18
25.21
22.38
19.08
15.75
12.77
10.46
8.95
8.26
8.21
8.58
9.02
9.25
9.04
8.29
6.97
5.15
2.92
0.31
-2.65
-6.03
-9.86
-14.13
-18.73
-23.45
-27.93
-31.63
-33.91
-34.03
-31.42
-25.88
-17.77
-8.01
2.11
11.34
18.74
23.94
27.09
28.62
28.99
28.49
27.24
25.31
22.83
20.12
17.63
15.82
15.03
15.38
16.73
18.71
20.83
22.61
23.68
23.9
23.41
22.58
21.97
22.2
23.79
26.93
31.47
36.9
42.56
47.99
53.17
58.71
65.64
75.02
87.44
102.63
119.32
135.46
148.66
156.7
158.04
152.14
139.5
121.38
99.3
74.62
48.18
20.48
-7.98
-36.24
-62.75
-85.67
-103.38
-115.13
-121.19
-122.71
-121.24
-118.32
-115.19
-112.85
-112.14
-113.74
-118.14
-125.46
-135.39
-147.09
-159.15
-169.49
-175.47
-174.4
-164.27
-144.71
-117.33
-85.43
-53.05
-23.79
0.09
17.89
30.09
37.68
41.54
42.37
40.75
37.43
33.48
30.04
28.16
28.39
30.63
34.14
37.71
40.06
40.28
38.11
33.86
28.26
22.05
15.72
9.41
3.09
-3.24
-9.51
-15.54
-21.27
-26.77
-32.33
-38.22
-44.46
-50.6
-55.69
-58.45
-57.65
-52.51
-43.09
-30.29
-15.71
-1.21
11.6
21.78
29.15
34.23
37.83
40.74
43.51
46.41
49.54
52.98
56.82
61.19
66.19
71.9
78.41
85.76
93.76
101.76
108.57
112.61
112.26
106.34
94.41
76.93
55.0
30.11
3.74
-22.84
-48.66
-73.06
-95.48
-115.32
-131.71
-143.43
-149.07
-147.44
-137.95
-121.02
-98.18
-71.82
-44.7
-19.34
2.41
19.64
32.25
40.76
46.01
48.95
50.55
51.72
53.13
54.95
56.59
56.74
53.79
46.55
34.88
20.0
4.22
-9.74
-19.54
-23.91
-22.95
-18.01
-11.13
-4.36
0.95
4.59
7.34
10.48
15.04
21.23
28.2
34.4
38.16
38.21
34.09
26.25
15.95
5.12
-3.93
-8.93
-8.24
-1.34
10.98
26.85
43.72
59.01
70.6
77.32
79.25
77.74
74.95
72.93
72.64
73.59
74.31
73.46
71.03
68.58
68.54
72.71
81.15
91.94
102.21
109.62
113.4
114.34
113.76
112.32
109.44
103.63
93.67
79.97
64.99
52.52
45.8
45.43
48.36
48.49
38.95
14.66
-26.05
-81.53
-148.0
-220.81
-294.79
-363.88
-420.87
-458.21
-470.12
-454.91
-416.15
-361.83
-301.63
-243.88
-193.56
-152.14
-118.76
-91.79
-69.91
-52.18
-37.59
-24.76
-12.09
1.78
17.39
34.09
50.13
63.26
71.49
73.68
69.98
61.73
51.07
40.27
31.16
24.68
20.83
19.0
18.42
18.58
19.38
20.97
23.5
26.8
30.45
33.88
36.6
38.3
38.77
37.8
35.13
30.55
24.01
15.83
6.73
-2.22
-9.77
-14.64
-15.84
-12.88
-5.97
4.02
15.8
27.93
39.2
48.64
55.53
59.27
59.47
56.11
49.78
41.73
33.62
26.92
22.43
19.98
18.67
17.46
15.71
13.49
11.43
10.28
10.41
11.69
13.7
16.02
18.6
21.8
26.17
32.2
40.03
49.05
57.59
62.75
60.52
46.41
16.91
-28.79
-87.31
-150.97
-209.23
-251.63
-270.87
-264.78
-236.54
-193.02
-142.36
-91.55
-45.07
-4.62
30.25
60.85
88.2
112.05
130.67
141.3
141.3
129.42
106.76
76.93
45.14
16.81
-3.74
-14.09
-13.74
-3.69
14.02
36.75
61.49
85.04
104.57
118.12
125.32
127.51
127.39
127.9
130.86
135.95
140.67
141.18
134.01
117.48
92.45
61.89
29.86
0.11
-24.81
-43.87
-57.27
-65.9
-70.69
-72.25
-70.5
-64.7
-53.6
-36.01
-11.57
18.58
51.49
82.72
107.37
121.4
122.83
112.17
92.07
66.3
38.55
11.58
-13.11
-35.08
-54.38
-71.18
-85.54
-97.42
-106.62
-112.75
-115.19
-113.16
-105.99
-93.55
-76.57
-56.65
-35.86
-16.19
1.0
15.23
26.74
36.14
43.95
50.31
54.81
56.55
54.48
47.76
36.3
21.07
4.1
-12.0
-24.8
-32.81
-35.84
-34.87
-31.47
-27.07
-22.57
-18.26
-14.14
-10.25
-6.85
-4.46
-3.58
-4.5
-6.93
-9.93
-11.97
-11.43
-7.19
0.74
11.05
21.57
30.01
34.84
35.72
33.31
28.77
23.13
17.04
10.86
4.92
-0.34
-4.6
-7.86
-10.73
-14.16
-19.08
-25.96
-34.54
-43.8
-52.32
-58.63
-61.65
-60.98
-56.97
-50.55
-42.94
-35.28
-28.36
-22.58
-18.07
-14.95
-13.39
-13.63
-15.62
-18.85
-22.2
-24.23
-23.72
-20.18
-14.21
-7.2
-0.91
3.34
5.09
5.01
4.6
5.77
10.21
18.94
32.01
48.36
65.89
81.57
91.91
93.52
83.93
62.42
30.54
-8.11
-48.63
-85.95
-115.76
-134.89
-141.14
-133.1
-110.5
-74.88
-30.25
17.2
60.58
94.36
116.16
127.04
130.41
130.17
129.31
129.54
131.74
136.52
144.07
153.56
162.44
166.62
161.62
144.13
113.5
72.15
24.97
-21.89
-62.41
-91.93
-107.97
-110.61
-102.35
-87.44
-70.84
-56.93
-48.57
-46.64
-50.2
-57.01
-64.18
-68.97
-69.47
-65.16
-57.19
-48.1
-41.18
-39.38
-44.38
-55.91
-71.61
-87.39
-98.38
-100.28
-90.66
-69.92
-41.28
-9.72
19.75
43.5
60.04
69.52
72.76
70.71
64.39
55.58
46.97
41.65
41.66
46.63
53.34
56.54
50.97
33.0
2.08
-38.89
-83.83
-124.49
-151.78
-157.68
-137.41
-91.35
-25.65
49.0
120.2
177.31
214.02
229.02
224.86
205.66
175.17
135.76
88.83
35.95
-20.02
-74.63
-122.51
-158.82
-180.97
-189.6
-188.27
-181.99
-175.03
-169.15
-162.91
-153.02
-136.65
-113.36
-85.79
-58.42
-35.37
-18.48
-6.79
2.27
11.07
20.24
28.56
33.95
34.95
31.63
25.64
19.33
14.67
12.59
12.94
14.98
17.91
21.3
25.08
29.33
34.11
39.24
44.35
48.96
52.54
54.64
54.92
53.27
49.83
45.07
39.66
34.4
30.06
27.39
27.1
29.85
36.05
45.61
57.63
70.4
81.65
89.22
91.58
88.3
80.05
68.29
54.83
41.33
29.08
18.7
10.15
2.9
-3.91
-11.06
-19.03
-27.88
-37.23
-46.38
-54.24
-59.33
-59.95
-54.71
-43.31
-27.05
-8.8
7.99
20.52
27.6
29.84
28.77
25.86
21.72
16.21
9.05
0.58
-8.12
-15.58
-20.69
-23.18
-23.6
-22.94
-22.08
-21.52
-21.35
-21.46
-21.66
-21.81
-21.9
-22.02
-22.41
-23.43
-25.47
-28.83
-33.56
-39.41
-45.89
-52.38
-58.21
-62.72
-65.27
-65.33
-62.53
-56.82
-48.6
-38.65
-27.96
-17.47
-7.75
1.06
9.23
17.22
25.42
33.93
42.35
49.93
55.69
58.85
59.07
56.66
52.36
47.03
41.32
35.55
29.89
24.53
20.02
17.17
16.67
18.72
22.62
27.04
30.46
31.84
30.95
28.29
24.67
20.57
15.91
10.23
3.21
-4.91
-13.19
-20.41
-25.65
-28.83
-30.71
-32.54
-35.42
-39.81
-45.48
-51.72
-57.68
-62.44
-65.07
-64.53
-59.91
-50.92
-38.28
-23.86
-10.17
0.7
8.05
12.95
17.62
24.22
33.42
43.88
52.69
56.78
54.4
45.98
33.89
21.33
10.92
3.81
-0.37
-2.88
-5.14
-8.38
-13.71
-22.33
-35.41
-53.62
-76.25
-100.99
-124.26
-142.38
-152.89
-154.95
-148.86
-134.89
-112.59
-81.08
-40.34
7.36
56.99
101.79
135.41
154.02
157.38
148.32
131.25
110.33
88.44
67.1
47.11
29.13
14.05
2.67
-4.65
-8.31
-9.43
-9.32
-8.88
-8.17
-6.34
-2.18
5.11
15.26
26.78
37.37
44.86
48.09
47.24
43.68
39.31
35.91
34.54
35.35
37.74
40.58
42.58
42.68
40.32
35.56
29.02
21.57
13.94
6.41
-1.22
-9.53
-19.21
-30.77
-44.41
-59.85
-76.22
-92.02
-105.29
-114.09
-117.14
-114.3
-106.7
-96.38
-85.47
-75.59
-67.56
-61.57
-57.69
-56.25
-57.84
-62.96
-71.33
-81.56
-91.15
-97.3
-97.89
-92.46
-82.53
-71.2
-61.97
-57.23
-57.16
-59.29
-59.08
-51.21
-31.01
4.07
53.33
112.31
173.41
227.52
266.72
286.79
288.5
276.88
258.87
240.32
224.18
210.42
197.6
184.74
172.35
162.02
155.12
151.64
150.05
147.97
143.39
135.3
123.66
108.89
91.33
71.17
48.46
23.52
-2.79
-28.83
-52.3
-70.51
-81.3
-83.89
-79.56
-71.38
-62.92
-56.6
-52.48
-48.35
-41.16
-29.0
-12.28
6.37
23.68
37.52
47.86
56.4
65.38
76.49
90.31
106.49
123.86
140.29
152.63
156.74
148.48
125.08
86.45
35.7
-21.64
-79.24
-131.76
-176.1
-211.63
-239.67
-262.41
-281.93
-299.57
-315.76
-330.29
-342.74
-352.8
-360.46
-365.68
-368.24
-367.52
-362.75
-353.09
-337.97
-317.06
-290.24
-257.58
-219.17
-175.32
-126.7
-74.48
-20.43
33.21
83.95
129.3
167.07
195.75
214.67
224.25
225.82
221.45
213.38
203.62
193.49
183.53
173.61
163.39
152.6
141.33
129.95
118.84
108.17
97.87
87.66
77.32
66.85
56.54
46.81
38.03
30.25
23.23
16.54
9.76
2.67
-4.68
-12.06
-19.15
-25.57
-30.93
-34.84
-36.91
-36.86
-34.55
-30.09
-23.87
-16.49
-8.71
-1.3
5.04
9.85
12.92
14.36
14.55
13.98
13.18
12.61
12.5
12.89
13.6
14.27
14.56
14.21
13.17
11.63
9.87
8.15
6.65
5.44
4.49
3.68
2.82
1.64
-0.11
-2.62
-5.87
-9.65
-13.68
-17.74
-21.85
-26.16
-30.83
-35.75
-40.35
-43.75
-44.97
-43.34
-38.82
-32.03
-24.09
-16.25
-9.49
-4.35
-0.82
1.38
2.62
3.2
3.23
2.78
2.04
1.32
0.98
1.32
2.42
4.08
5.96
7.72
9.17
10.24
10.91
11.12
10.72
9.59
7.77
5.46
3.03
0.72
-1.47
-3.88
-7.06
-11.46
-17.19
-23.81
-30.38
-35.67
-38.5
-38.09
-34.3
-27.63
-19.13
-10.05
-1.6
5.31
10.17
12.83
13.41
12.29
9.98
7.09
4.22
1.82
0.1
-1.01
-1.69
-2.14
-2.39
-2.29
-1.68
-0.5
1.07
2.66
3.81
4.12
3.38
1.55
-1.3
-5.03
-9.49
-14.49
-19.84
-25.39
-30.94
-36.25
-40.93
-44.42
-46.05
-45.23
-41.77
-36.0
-28.77
-21.21
-14.28
-8.53
-4.0
-0.31
2.93
5.95
8.63
10.65
11.72
11.76
11.03
10.04
9.39
9.52
10.55
12.26
14.19
15.74
16.43
16.04
14.63
12.49
10.0
7.49
5.1
2.83
0.49
-2.19
-5.55
-9.85
-15.2
-21.32
-27.5
-32.67
-35.62
-35.37
-31.46
-24.19
-14.43
-3.44
7.44
17.11
24.82
30.2
33.22
34.14
33.41
31.62
29.44
27.48
26.24
26.01
26.76
28.18
29.72
30.77
30.86
29.79
27.74
25.14
22.44
19.95
17.74
15.69
13.57
11.21
8.52
5.48
2.04
-1.88
-6.34
-11.32
-16.7
-22.15
-27.2
-31.22
-33.57
-33.65
-31.13
-26.09
-19.02
-10.74
-2.19
5.8
12.6
17.79
21.17
22.81
23.08
22.69
22.49
23.21
25.15
27.97
30.78
32.57
32.59
30.7
27.39
23.55
20.03
17.34
15.45
13.93
12.26
10.05
7.26
4.15
1.12
-1.52
-3.66
-5.42
-7.13
-9.11
-11.64
-14.78
-18.48
-22.53
-26.61
-30.31
-33.12
-34.46
-33.75
-30.58
-24.88
-17.03
-7.9
1.33
9.51
15.81
19.92
22.01
22.59
22.28
21.61
21.0
20.75
21.11
22.19
23.94
26.04
27.99
29.25
29.41
28.47
26.71
24.67
22.86
21.53
20.65
19.89
18.81
17.0
14.19
10.21
5.05
-1.17
-8.11
-15.16
-21.48
-26.24
-28.93
-29.61
-28.95
-27.95
-27.49
-27.83
-28.5
-28.48
-26.8
-22.99
-17.31
-10.66
-4.08
1.67
6.3
9.94
12.81
14.99
16.31
16.52
15.56
13.72
11.68
10.18
9.75
10.44
11.77
13.01
13.51
13.02
11.71
10.07
8.55
7.34
6.32
5.15
3.48
1.15
-1.7
-4.71
-7.46
-9.67
-11.27
-12.49
-13.74
-15.42
-17.79
-20.87
-24.39
-27.85
-30.64
-32.1
-31.7
-29.08
-24.16
-17.2
-8.73
0.54
9.81
18.34
25.53
30.98
34.45
35.97
35.73
34.11
31.63
28.87
26.37
24.56
23.66
23.68
24.31
25.06
25.4
24.88
23.38
21.09
18.46
15.9
13.61
11.31
8.34
3.84
-2.83
-11.81
-22.49
-33.64
-43.67
-51.15
-55.22
-55.91
-54.14
-51.4
-49.32
-49.02
-50.8
-53.98
-57.18
-58.71
-57.14
-51.8
-42.88
-31.34
-18.62
-6.14
5.0
14.13
21.05
25.81
28.54
29.44
28.82
27.19
25.24
23.74
23.2
23.69
24.81
25.81
26.02
25.04
22.95
20.16
17.14
14.26
11.62
9.14
6.66
4.07
1.35
-1.46
-4.28
-7.04
-9.61
-11.82
-13.54
-14.8
-15.88
-17.27
-19.53
-22.94
-27.29
-31.82
-35.45
-37.11
-36.13
-32.43
-26.48
-19.04
-10.93
-2.84
4.74
11.44
16.97
21.09
23.72
24.9
24.86
23.9
22.4
20.72
19.21
18.17
17.79
18.11
18.95
19.93
20.6
20.61
19.85
18.44
16.63
14.69
12.74
10.8
8.85
6.88
4.93
2.99
0.96
-1.4
-4.36
-8.1
-12.51
-17.17
-21.43
-24.59
-26.11
-25.69
-23.36
-19.34
-13.96
-7.65
-0.78
6.19
12.77
18.4
22.56
24.9
25.33
24.1
21.71
18.8
15.85
13.12
10.65
8.33
6.1
4.05
2.38
1.28
0.86
1.02
1.47
1.8
1.58
0.47
-1.67
-4.75
-8.41
-12.15
-15.43
-17.9
-19.5
-20.46
-21.26
-22.35
-24.04
-26.38
-29.04
-31.56
-33.34
-33.92
-33.07
-30.76
-27.14
-22.42
-16.77
-10.44
-3.79
2.61
8.04
11.82
13.46
12.83
10.19
6.1
1.34
-3.17
-6.51
-7.95
-7.15
-4.34
-0.25
4.2
8.3
11.83
15.03
18.24
21.46
24.05
24.78
22.33
15.86
5.54
-7.28
-20.32
-31.03
-37.4
-38.58
-35.15
-28.75
-21.4
-14.71
-9.34
-5.07
-1.16
3.06
7.86
13.09
18.5
23.96
29.51
35.16
40.54
44.86
47.11
46.5
42.93
37.09
30.35
24.21
19.82
17.62
17.3
18.05
18.88
18.97
17.86
15.54
12.34
8.73
5.18
1.99
-0.71
-2.94
-4.78
-6.43
-8.14
-10.29
-13.29
-17.38
-22.52
-28.22
-33.62
-37.71
-39.6
-38.84
-35.48
-30.07
-23.46
-16.56
-10.13
-4.76
-0.83
1.48
2.08
1.07
-1.32
-4.72
-8.61
-12.43
-15.65
-17.82
-18.74
-18.43
-17.23
-15.68
-14.37
-13.83
-14.27
-15.64
-17.63
-19.86
-22.11
-24.49
-27.46
-31.73
-37.92
-46.3
-56.45
-67.26
-77.06
-84.08
-86.93
-85.03
-78.78
-69.41
-58.62
-48.14
-39.35
-33.06
-29.53
-28.62
-29.96
-33.25
-38.34
-45.14
-53.42
-62.45
-70.9
-76.94
-78.7
-74.71
-64.24
-47.43
-25.07
1.46
30.26
58.98
85.04
106.24
121.42
130.87
136.16
139.25
141.57
143.35
143.67
141.2
135.07
125.42
113.29
100.16
87.5
76.52
68.18
63.21
61.88
63.77
67.53
71.11
72.35
69.78
63.04
52.98
41.17
29.12
17.87
7.76
-1.24
-9.25
-16.14
-21.57
-25.09
-26.43
-25.66
-23.24
-19.86
-16.25
-12.94
-10.16
-7.87
-5.9
-4.19
-2.9
-2.44
-3.25
-5.63
-9.5
-14.44
-19.84
-25.1
-29.82
-33.81
-36.9
-38.86
-39.22
-37.32
-32.51
-24.46
-13.31
0.26
15.15
30.17
44.27
56.7
66.96
74.78
80.05
82.82
83.31
81.81
78.58
73.67
66.92
58.16
47.53
35.8
24.36
14.87
8.67
6.22
6.91
9.4
12.15
14.05
14.76
14.62
14.25
14.17
14.4
14.59
14.17
12.79
10.58
8.16
6.43
6.02
6.93
8.38
9.02
7.53
3.24
-3.61
-12.0
-20.64
-28.61
-35.69
-42.3
-49.11
-56.53
-64.44
-72.11
-78.6
-83.07
-85.14
-84.92
-82.93
-79.79
-76.04
-72.0
-67.77
-63.45
-59.2
-55.39
-52.45
-50.73
-50.22
-50.57
-51.13
-51.23
-50.48
-48.83
-46.59
-44.26
-42.41
-41.46
-41.66
-43.01
-45.21
-47.66
-49.52
-49.89
-48.06
-43.71
-37.04
-28.61
-19.24
-9.75
-0.87
6.82
12.86
17.02
19.27
19.83
19.19
18.01
16.88
16.25
16.28
16.86
17.7
18.53
19.09
19.31
19.18
18.81
18.26
17.58
16.66
15.34
13.43
10.85
7.71
4.25
0.79
-2.43
-5.37
-8.19
-11.21
-14.73
-18.83
-23.21
-27.22
-29.97
-30.59
-28.52
-23.71
-16.6
-8.07
0.89
9.37
16.71
22.51
26.58
28.86
29.44
28.56
26.68
24.39
22.26
20.72
19.9
19.69
19.82
20.01
20.08
19.94
19.59
18.98
18.03
16.65
14.79
12.47
9.78
6.82
3.69
0.4
-3.01
-6.56
-10.19
-13.85
-17.5
-21.18
-24.92
-28.66
-32.18
-35.0
-36.47
-35.96
-33.11
-27.98
-21.04
-13.07
-4.91
2.69
9.18
14.23
17.68
19.51
19.91
19.18
17.83
16.34
15.17
14.51
14.27
14.1
13.52
12.19
9.94
6.97
3.63
0.31
-2.79
-5.73
-8.71
-11.97
-15.6
-19.53
-23.5
-27.28
-30.73
-33.85
-36.79
-39.75
-42.91
-46.3
-49.75
-52.73
-54.47
-54.01
-50.53
-43.68
-33.72
-21.53
-8.42
4.34
15.75
25.22
32.51
37.67
40.85
42.3
42.36
41.51
40.21
38.85
37.61
36.47
35.32
34.1
32.88
31.87
31.27
31.14
31.27
31.19
30.31
28.16
24.51
19.6
13.97
8.29
3.13
-1.2
-4.73
-7.67
-10.32
-12.87
-15.3
-17.34
-18.5
-18.13
-15.56
-10.37
-2.53
7.49
18.72
30.03
40.34
48.86
55.18
59.2
60.91
60.44
57.96
53.79
48.48
42.65
36.96
31.88
27.64
24.2
21.41
19.09
17.15
15.53
14.19
13.02
11.77
10.14
7.87
4.87
1.25
-2.69
-6.61
-10.19
-13.29
-16.06
-18.84
-22.11
-26.21
-31.16
-36.43
-41.03
-43.8
-43.81
-40.75
-35.06
-27.76
-20.07
-13.0
-7.04
-2.3
1.36
4.03
5.65
6.08
5.35
3.76
1.88
0.4
-0.25
0.01
0.79
1.59
1.94
1.74
1.17
0.53
0.06
-0.31
-0.8
-1.68
-3.07
-4.87
-6.87
-8.88
-10.86
-12.9
-15.17
-17.85
-21.02
-24.63
-28.41
-31.85
-34.19
-34.61
-32.46
-27.57
-20.4
-11.94
-3.46
3.89
9.37
12.81
14.44
14.72
14.1
12.96
11.53
9.97
8.44
7.11
6.18
5.77
5.89
6.46
7.25
7.97
8.3
8.04
7.07
5.4
3.16
0.57
-2.16
-4.82
-7.32
-9.75
-12.35
-15.49
-19.5
-24.41
-29.86
-35.01
-38.75
-40.01
-38.11
-33.03
-25.33
-16.05
-6.36
2.69
10.33
16.17
20.11
22.24
22.82
22.18
20.71
18.84
16.93
15.33
14.22
13.63
13.45
13.41
13.26
12.81
11.96
10.8
9.42
7.95
6.37
4.61
2.5
-0.1
-3.21
-6.73
-10.46
-14.23
-18.03
-22.02
-26.37
-31.11
-35.86
-39.81
-41.91
-41.21
-37.26
-30.29
-21.16
-11.11
-1.42
6.97
13.5
18.05
20.79
22.03
22.16
21.55
20.54
19.43
18.46
17.79
17.47
17.42
17.45
17.36
17.0
16.37
15.53
14.62
13.69
12.64
11.27
9.33
6.69
3.37
-0.44
-4.47
-8.48
-12.33
-16.01
-19.67
-23.5
-27.66
-32.08
-36.37
-39.81
-41.48
-40.55
-36.62
-29.88
-21.14
-11.58
-2.39
5.58
11.86
16.45
19.58
21.52
22.55
22.83
22.55
21.88
21.09
20.42
20.05
19.99
20.07
19.94
19.28
17.89
15.74
13.06
10.15
7.25
4.4
1.46
-1.74
-5.28
-8.97
-12.45
-15.34
-17.46
-18.95
-20.24
-21.82
-24.08
-27.13
-30.77
-34.55
-37.82
-39.83
-39.82
-37.2
-31.71
-23.61
-13.65
-2.92
7.46
16.61
24.09
29.82
33.98
36.78
38.43
39.04
38.78
37.9
36.73
35.62
34.77
34.23
33.84
33.37
32.64
31.64
30.53
29.49
28.65
27.94
27.13
25.91
24.0
21.27
17.77
13.71
9.41
5.23
1.49
-1.66
-4.3
-6.72
-9.37
-12.58
-16.42
-20.51
-24.05
-26.09
-25.84
-23.02
-17.86
-11.1
-3.66
3.62
10.14
15.57
19.7
22.42
23.63
23.39
21.97
19.87
17.72
16.08
15.26
15.31
16.01
17.03
18.07
18.85
19.26
19.2
18.71
17.87
16.82
15.67
14.49
13.21
11.71
9.86
7.63
5.2
2.86
0.84
-0.81
-2.31
-4.09
-6.6
-10.08
-14.38
-18.98
-23.15
-26.1
-27.24
-26.25
-23.14
-18.22
-12.04
-5.38
0.89
5.98
9.31
10.74
10.45
8.89
6.48
3.55
0.32
-3.03
-6.24
-8.98
-11.0
-12.18
-12.66
-12.67
-12.44
-12.05
-11.46
-10.65
-9.71
-8.84
-8.31
-8.33
-8.92
-9.97
-11.28
-12.68
-14.06
-15.4
-16.75
-18.14
-19.65
-21.16
-22.41
-22.91
-22.09
-19.42
-14.72
-8.2
-0.49
7.55
15.09
21.45
26.24
29.33
30.78
30.8
29.71
27.86
25.63
23.35
21.27
19.51
18.11
16.99
16.0
14.92
13.6
11.96
10.01
7.85
5.58
3.23
0.75
-1.95
-4.97
-8.35
-12.05
-16.01
-20.14
-24.39
-28.67
-32.8
-36.42
-39.0
-39.93
-38.73
-35.26
-29.79
-22.99
-15.73
-8.82
-2.82
2.04
5.79
8.52
10.3
11.13
11.01
10.02
8.44
6.75
5.49
5.15
5.97
7.87
10.47
13.27
15.76
17.56
18.47
18.42
17.42
15.52
12.84
9.57
5.96
2.3
-1.22
-4.59
-7.98
-11.71
-16.02
-20.9
-25.92
-30.28
-33.0
-33.24
-30.67
-25.56
-18.76
-11.36
-4.35
1.59
6.18
9.4
11.38
12.26
12.24
11.53
10.38
9.03
7.67
6.43
5.38
4.59
4.09
3.85
3.75
3.68
3.5
3.13
2.63
2.14
1.81
1.73
1.86
1.98
1.8
0.89
-1.16
-4.65
-9.65
-15.8
-22.34
-28.16
-32.05
-33.02
-30.61
-25.07
-17.3
-8.64
-0.43
6.3
11.03
13.8
14.99
15.12
14.62
13.76
12.66
11.45
10.26
9.34
8.89
9.01
9.58
10.29
10.77
10.73
10.08
8.92
7.51
6.06
4.63
3.06
1.14
-1.35
-4.48
-8.18
-12.31
-16.74
-21.3
-25.76
-29.66
-32.3
-32.95
-31.06
-26.56
-19.95
-12.07
-3.91
3.73
10.34
15.71
19.73
22.31
23.35
22.78
20.75
17.68
14.21
11.12
9.02
8.26
8.73
9.96
11.28
12.03
11.8
10.49
8.34
5.73
3.04
0.49
-1.91
-4.29
-6.87
-9.81
-13.22
-17.11
-21.32
-25.46
-28.95
-30.97
-30.79
-27.96
-22.58
-15.34
-7.29
0.43
7.0
12.01
15.48
17.65
18.77
19.02
18.51
17.38
15.87
14.3
13.03
12.29
12.09
12.23
12.38
12.23
11.58
10.41
8.81
6.94
4.93
2.81
0.49
-2.16
-5.3
-9.02
-13.27
-17.89
-22.51
-26.7
-29.95
-31.72
-31.59
-29.3
-24.82
-18.46
-10.77
-2.5
5.52
12.58
18.14
21.9
23.81
23.98
22.71
20.39
17.53
14.66
12.34
10.97
10.75
11.55
12.91
14.16
14.62
13.82
11.69
8.59
5.12
1.91
-0.64
-2.52
-4.08
-5.85
-8.39
-12.05
-16.86
-22.46
-28.08
-32.74
-35.44
-35.4
-32.31
-26.37
-18.31
-9.22
-0.3
7.39
13.17
16.79
18.5
18.79
18.27
17.44
16.54
15.66
14.77
13.82
12.81
11.75
10.61
9.27
7.65
5.74
3.6
1.42
-0.63
-2.45
-4.03
-5.53
-7.16
-9.12
-11.63
-14.8
-18.69
-23.27
-28.39
-33.82
-39.1
-43.6
-46.53
-47.13
-44.83
-39.52
-31.67
-22.29
-12.6
-3.77
3.44
8.71
12.13
14.01
14.74
14.67
14.13
13.43
12.83
12.53
12.53
12.68
12.73
12.4
11.54
10.14
8.26
6.0
3.45
0.67
-2.25
-5.14
-7.79
-10.0
-11.69
-12.96
-14.08
-15.32
-16.88
-18.78
-20.85
-22.77
-24.14
-24.47
-23.25
-19.97
-14.27
-6.09
4.3
16.31
29.14
42.02
54.19
64.9
73.37
78.83
80.81
79.46
75.84
71.76
69.24
69.68
73.14
78.19
82.32
82.99
78.62
69.35
56.91
44.04
33.4
26.58
23.83
24.02
25.11
24.44
19.09
6.28
-15.82
-46.97
-84.1
-121.4
-151.85
-169.51
-171.81
-160.4
-140.25
-117.26
-95.82
-77.49
-61.28
-45.19
-27.96
-9.82
7.89
23.78
37.39
49.36
60.78
72.21
83.02
91.5
95.79
94.82
88.95
79.94
70.01
61.0
53.58
47.24
40.74
32.86
22.93
11.09
-1.85
-14.84
-26.95
-37.71
-47.14
-55.65
-63.66
-71.48
-79.1
-86.32
-92.88
-98.62
-103.56
-107.8
-111.38
-114.19
-116.01
-116.62
-115.9
-113.86
-110.65
-106.43
-101.41
-95.9
-90.29
-84.98
-80.28
-76.16
-72.16
-67.42
-60.85
-51.5
-38.85
-23.06
-4.97
14.04
32.52
49.25
63.62
75.66
85.95
95.27
104.3
113.29
122.07
130.15
136.93
141.85
144.6
145.13
143.65
140.63
136.7
132.29
127.39
121.27
112.69
100.4
83.95
64.19
43.21
23.63
7.47
-4.72
-14.05
-22.75
-33.06
-46.2
-61.89
-78.55
-93.95
-106.11
-113.96
-117.71
-118.71
-118.92
-120.15
-123.09
-126.91
-129.21
-126.84
-117.0
-98.35
-71.67
-39.74
-6.52
23.98
48.73
66.27
76.67
81.02
80.86
77.69
72.94
68.1
64.76
64.44
68.03
75.26
84.53
93.38
99.34
100.95
98.29
92.83
86.65
81.5
78.22
76.59
75.9
75.56
75.44
75.87
77.18
79.33
81.57
82.68
81.3
76.53
68.3
57.4
45.25
33.45
23.18
14.92
8.4
2.88
-2.38
-7.7
-12.81
-16.95
-19.23
-19.0
-16.09
-10.94
-4.5
1.94
6.94
9.1
7.38
1.33
-8.7
-21.69
-36.12
-50.42
-63.28
-73.86
-81.76
-86.91
-89.42
-89.53
-87.6
-84.08
-79.56
-74.62
-69.7
-65.11
-60.99
-57.35
-54.04
-50.73
-46.96
-42.3
-36.45
-29.25
-20.49
-9.73
3.75
20.6
40.84
63.39
85.91
105.4
119.06
125.16
123.33
114.44
100.13
82.29
62.86
43.8
26.91
13.44
3.65
-3.44
-9.65
-16.88
-26.11
-36.85
-47.28
-55.05
-58.32
-56.45
-50.12
-40.84
-30.31
-19.88
-10.54
-3.01
1.99
3.73
1.69
-4.1
-12.88
-23.25
-33.49
-42.04
-47.94
-50.91
-51.22
-49.29
-45.46
-39.79
-32.34
-23.5
-14.22
-5.98
-0.34
1.64
-0.14
-4.79
-10.8
-16.56
-20.85
-23.03
-23.01
-20.98
-17.26
-12.27
-6.48
-0.42
5.38
10.51
14.71
17.92
20.17
21.53
22.08
21.85
20.95
19.61
18.15
16.97
16.46
16.88
18.23
20.3
22.63
24.76
26.34
27.23
27.37
26.7
24.95
21.78
16.94
10.52
3.11
-4.42
-11.16
-16.61
-20.8
-24.26
-27.71
-31.67
-36.3
-41.32
-46.09
-49.87
-51.95
-51.86
-49.45
-44.92
-38.75
-31.72
-24.67
-18.4
-13.45
-10.06
-8.14
-7.39
-7.44
-7.87
-8.38
-8.78
-9.07
-9.39
-10.02
-11.23
-13.12
-15.56
-18.22
-20.79
-23.24
-25.98
-29.7
-35.0
-41.92
-49.67
-56.72
-61.35
-62.26
-59.14
-52.84
-45.02
-37.66
-32.42
-30.34
-31.68
-35.99
-42.29
-49.18
-55.07
-58.45
-58.21
-53.8
-45.37
-33.57
-19.2
-3.06
14.26
32.28
50.56
68.64
86.12
102.65
117.98
131.79
143.53
152.44
157.64
158.49
154.88
147.29
136.65
123.99
110.25
96.16
82.46
69.89
59.19
50.82
44.71
40.16
36.1
31.6
26.15
19.95
13.56
7.5
1.94
-3.35
-8.75
-14.42
-20.0
-24.78
-27.88
-28.78
-27.51
-24.71
-21.4
-18.56
-16.85
-16.46
-17.27
-19.02
-21.48
-24.56
-28.15
-32.08
-36.0
-39.42
-41.85
-42.98
-42.79
-41.62
-40.06
-38.75
-38.19
-38.57
-39.82
-41.67
-43.8
-46.0
-48.18
-50.34
-52.53
-54.86
-57.45
-60.46
-63.91
-67.6
-70.93
-72.98
-72.69
-69.3
-62.6
-53.14
-42.03
-30.68
-20.36
-12.01
-6.08
-2.54
-1.01
-0.9
-1.51
-2.16
-2.33
-1.72
-0.27
1.75
3.87
5.62
6.8
7.73
9.38
13.01
19.78
30.04
43.08
57.13
69.95
79.55
84.84
85.87
83.5
78.89
72.93
66.03
58.21
49.39
39.71
29.69
20.06
11.58
4.74
-0.33
-3.84
-6.17
-7.7
-8.71
-9.43
-10.07
-10.88
-12.21
-14.37
-17.52
-21.53
-25.97
-30.12
-33.18
-34.53
-33.92
-31.54
-27.94
-23.85
-19.88
-16.41
-13.57
-11.38
-9.87
-9.25
-9.81
-11.85
-15.46
-20.49
-26.59
-33.32
-40.29
-47.15
-53.5
-58.77
-62.12
-62.65
-59.7
-53.17
-43.7
-32.53
-21.14
-10.79
-2.22
4.4
9.26
12.67
14.82
15.79
15.71
14.81
13.56
12.52
12.17
12.7
13.95
15.51
16.79
17.25
16.53
14.48
11.2
7.02
2.38
-2.21
-6.3
-9.59
-11.99
-13.61
-14.76
-15.87
-17.38
-19.48
-22.04
-24.38
-25.45
-24.2
-19.9
-12.58
-3.08
7.22
16.83
24.7
30.43
34.19
36.4
37.36
37.06
35.31
31.96
27.14
21.31
15.07
8.88
2.84
-3.35
-10.14
-17.87
-26.46
-35.38
-43.82
-50.85
-55.61
-57.43
-55.85
-50.76
-42.54
-32.19
-21.17
-11.18
-3.62
0.75
1.91
0.38
-3.12
-8.02
-13.85
-20.11
-26.04
-30.58
-32.54
-31.06
-25.88
-17.55
-7.26
3.52
13.44
21.64
27.76
31.87
34.24
35.12
34.75
33.33
31.21
28.83
26.69
25.17
24.38
24.14
24.09
23.9
23.35
22.39
21.09
19.46
17.46
14.97
11.87
8.16
3.98
-0.39
-4.66
-8.54
-11.85
-14.53
-16.68
-18.53
-20.42
-22.74
-25.71
-29.21
-32.75
-35.46
-36.34
-34.56
-29.77
-22.27
-12.85
-2.61
7.39
16.35
23.82
29.57
33.53
35.64
35.94
34.67
32.3
29.56
27.2
25.76
25.36
25.68
26.18
26.31
25.81
24.67
23.1
21.31
19.34
17.1
14.46
11.36
7.93
4.46
1.23
-1.58
-3.97
-6.15
-8.44
-11.14
-14.51
-18.67
-23.57
-28.97
-34.43
-39.38
-43.04
-44.7
-43.68
-39.7
-32.95
-24.1
-14.2
-4.4
4.29
11.22
16.09
18.89
19.75
18.93
16.81
13.94
10.92
8.28
6.36
5.21
4.64
4.42
4.36
4.39
4.44
4.31
3.68
2.19
-0.42
-4.11
-8.59
-13.4
-18.16
-22.66
-26.91
-31.07
-35.38
-40.0
-44.92
-49.98
-54.89
-59.09
-61.8
-61.98
-58.5
-50.5
-37.7
-20.68
-0.78
20.31
41.05
60.56
78.63
95.36
110.64
123.71
133.26
138.0
137.37
131.99
123.48
113.84
104.63
96.4
88.78
80.97
72.46
63.38
54.44
46.45
39.74
33.95
28.26
21.83
14.4
6.37
-1.39
-7.99
-13.04
-16.79
-19.96
-23.39
-27.63
-32.81
-38.62
-44.52
-49.79
-53.71
-55.58
-54.88
-51.42
-45.45
-37.75
-29.34
-21.28
-14.39
-9.04
-5.25
-2.75
-1.2
-0.26
0.31
0.69
0.97
1.32
1.85
2.68
3.84
5.24
6.66
7.8
8.45
8.49
7.99
7.13
6.04
4.77
3.18
1.11
-1.56
-4.74
-8.2
-11.61
-14.71
-17.47
-20.09
-22.93
-26.39
-30.67
-35.66
-40.9
-45.59
-48.75
-49.44
-46.99
-41.2
-32.45
-21.57
-9.73
1.89
12.35
21.06
27.89
32.95
36.47
38.66
39.61
39.36
38.08
36.06
33.75
31.63
30.04
29.06
28.57
28.29
27.91
27.21
26.02
24.27
21.85
18.73
14.96
10.67
6.11
1.53
-2.85
-6.94
-10.72
-14.21
-17.45
-20.42
-23.12
-25.55
-27.79
-29.97
-32.32
-35.06
-38.41
-42.38
-46.71
-50.76
-53.56
-54.0
-51.21
-44.84
-35.23
-23.39
-10.69
1.51
12.18
20.76
27.17
31.56
34.24
35.47
35.43
34.36
32.5
30.19
27.84
25.82
24.33
23.4
22.92
22.66
22.45
22.17
21.74
21.06
19.97
18.33
16.08
13.32
10.27
7.19
4.26
1.54
-1.02
-3.43
-5.66
-7.64
-9.35
-10.93
-12.63
-14.75
-17.55
-21.13
-25.4
-29.97
-34.16
-37.08
-37.75
-35.46
-30.01
-21.9
-12.19
-2.21
6.94
14.59
20.56
24.91
27.81
29.28
29.31
27.93
25.4
22.16
18.77
15.67
13.11
11.14
9.66
8.53
7.69
7.11
6.75
6.51
6.24
5.71
4.75
3.3
1.38
-0.91
-3.49
-6.25
-9.16
-12.13
-15.07
-17.84
-20.38
-22.68
-24.91
-27.39
-30.42
-34.3
-39.08
-44.55
-50.16
-55.16
-58.65
-59.83
-58.18
-53.65
-46.59
-37.79
-28.21
-18.85
-10.57
-3.95
0.7
3.39
4.36
4.06
3.04
1.98
1.65
2.78
5.99
11.52
19.16
28.13
37.31
45.5
51.75
55.63
57.21
56.9
55.17
52.38
48.69
44.17
38.96
33.32
27.64
22.27
17.42
13.06
9.02
5.02
0.86
-3.61
-8.49
-13.79
-19.42
-25.03
-29.98
-33.41
-34.47
-32.6
-27.77
-20.45
-11.48
-1.83
7.65
16.26
23.47
28.87
32.18
33.34
32.52
30.2
27.02
23.71
20.89
18.93
17.91
17.67
17.82
17.98
17.9
17.5
16.89
16.13
15.2
13.91
11.97
9.19
5.59
1.4
-3.0
-7.31
-11.4
-15.34
-19.33
-23.59
-28.27
-33.42
-39.01
-44.85
-50.57
-55.55
-58.91
-59.77
-57.43
-51.76
-43.23
-32.91
-22.12
-12.05
-3.52
3.12
7.85
10.85
12.3
12.45
11.68
10.49
9.46
9.04
9.35
10.14
10.91
11.14
10.6
9.38
7.91
6.66
6.0
5.96
6.25
6.3
5.43
3.04
-1.13
-6.84
-13.25
-19.11
-23.08
-24.26
-22.57
-18.91
-14.87
-12.13
-11.82
-14.0
-17.68
-21.18
-22.78
-21.35
-16.68
-9.37
-0.45
9.06
18.45
27.36
35.55
42.74
48.49
52.26
53.8
53.21
51.07
48.19
45.34
42.94
40.93
38.89
36.32
32.94
28.86
24.54
20.55
17.23
14.56
12.14
9.43
6.05
2.03
-2.28
-6.41
-9.94
-12.75
-14.9
-16.64
-18.21
-19.85
-21.84
-24.45
-27.9
-32.09
-36.57
-40.4
-42.49
-41.84
-37.94
-30.99
-21.83
-11.69
-1.84
6.75
13.6
18.63
22.02
24.0
24.71
24.25
22.78
20.61
18.24
16.17
14.78
14.14
14.06
14.23
14.39
14.4
14.28
14.07
13.71
13.07
11.91
10.05
7.47
4.28
0.8
-2.63
-5.67
-8.1
-9.77
-10.73
-11.14
-11.35
-11.74
-12.72
-14.45
-16.78
-19.14
-20.59
-20.09
-16.83
-10.54
-1.61
8.96
19.89
29.97
38.3
44.43
48.23
49.72
48.97
46.01
41.01
34.39
26.87
19.39
12.83
7.73
4.13
1.56
-0.72
-3.39
-6.78
-10.87
-15.32
-19.76
-23.98
-28.0
-31.95
-35.94
-39.88
-43.55
-46.7
-49.29
-51.51
-53.76
-56.37
-59.53
-63.14
-66.98
-70.74
-74.12
-76.77
-78.1
-77.33
-73.62
-66.4
-55.72
-42.32
-27.47
-12.53
1.43
13.9
24.8
34.21
42.15
48.5
53.13
56.06
57.6
58.29
58.66
59.06
59.55
59.93
59.89
59.21
57.85
55.84
53.27
50.17
46.51
42.25
37.41
32.21
26.99
22.16
18.08
14.92
12.63
10.86
9.11
6.78
3.34
-1.57
-7.92
-15.33
-23.04
-30.02
-35.2
-37.74
-37.22
-33.71
-27.83
-20.5
-12.79
-5.64
0.23
4.42
6.81
7.52
6.87
5.35
3.49
1.8
0.57
-0.1
-0.33
-0.33
-0.31
-0.35
-0.44
-0.58
-0.85
-1.42
-2.57
-4.46
-7.07
-10.19
-13.44
-16.46
-19.06
-21.26
-23.3
-25.56
-28.34
-31.87
-36.11
-40.74
-45.1
-48.35
-49.53
-47.9
-43.16
-35.56
-25.87
-15.17
-4.59
4.96
12.88
18.89
22.98
25.34
26.32
26.33
25.84
25.25
24.87
24.89
25.3
25.96
26.54
26.65
25.86
23.87
20.61
16.22
11.07
5.63
0.31
-4.67
-9.44
-14.33
-19.76
-25.96
-32.85
-40.02
-46.93
-53.06
-58.12
-61.98
-64.57
-65.67
-64.9
-61.76
-55.89
-47.22
-36.05
-23.06
-9.19
4.41
16.53
26.09
32.41
35.39
35.51
33.67
30.86
27.84
25.02
22.55
20.44
18.8
17.8
17.61
18.2
19.24
20.25
20.65
20.0
18.05
14.73
10.16
4.49
-2.09
-9.41
-17.26
-25.39
-33.49
-41.2
-48.23
-54.49
-60.13
-65.4
-70.5
-75.28
-79.15
-81.23
-80.71
-77.25
-71.28
-64.0
-56.92
-51.4
-48.21
-47.37
-48.32
-50.22
-52.3
-53.94
-54.75
-54.37
-52.49
-48.84
-43.23
-35.49
-25.34
-12.19
4.85
26.68
53.57
84.67
117.77
149.7
177.24
198.09
211.58
218.61
221.04
220.67
218.46
214.33
207.34
196.5
181.31
162.22
140.6
118.42
97.62
79.62
65.0
53.43
44.0
35.71
27.86
20.28
13.25
7.17
2.27
-1.65
-5.22
-9.47
-15.62
-24.83
-37.66
-53.6
-70.69
-85.74
-95.09
-95.86
-87.03
-69.99
-48.08
-25.51
-6.07
7.86
15.5
17.39
14.72
8.86
0.99
-7.88
-16.92
-25.6
-33.68
-41.32
-48.98
-57.15
-66.1
-75.63
-84.98
-92.88
-97.81
-98.32
-93.48
-83.19
-68.34
-50.63
-32.09
-14.41
1.52
15.74
28.82
41.34
53.35
64.37
73.61
80.56
85.29
88.43
90.85
93.18
95.51
97.41
98.06
96.63
92.48
85.3
75.21
62.7
48.55
33.8
19.44
6.34
-5.1
-15.0
-23.96
-32.84
-42.47
-53.29
-65.17
-77.29
-88.42
-97.07
-101.97
-102.31
-98.0
-89.73
-78.83
-66.99
-55.89
-46.7
-39.87
-35.07
-31.44
-28.0
-24.08
-19.56
-14.91
-10.91
-8.33
-7.57
-8.54
-10.75
-13.52
-16.2
-18.31
-19.55
-19.72
-18.73
-16.55
-13.39
-9.61
-5.69
-2.03
1.35
4.78
8.85
14.13
20.86
28.84
37.44
45.82
53.04
58.23
60.68
59.98
56.21
50.08
42.89
36.16
31.12
28.29
27.32
27.28
27.08
25.94
23.57
20.08
15.73
10.8
5.48
-0.05
-5.56
-10.76
-15.37
-19.27
-22.48
-25.24
-27.87
-30.7
-33.93
-37.54
-41.3
-44.85
-47.87
-50.2
-51.97
-53.41
-54.73
-55.96
-56.96
-57.48
-57.38
-56.8
-56.07
-55.69
-56.05
-57.29
-59.14
-60.89
-61.6
-60.28
-56.24
-49.36
-40.11
-29.45
-18.53
-8.39
0.31
7.2
12.22
15.38
16.77
16.53
14.93
12.43
9.61
7.07
5.33
4.66
5.04
6.23
7.81
9.39
10.64
11.39
11.63
11.46
11.07
10.72
10.67
11.17
12.35
14.2
16.49
18.87
20.87
22.1
22.28
21.35
19.49
17.02
14.26
11.42
8.49
5.22
1.37
-3.23
-8.56
-14.42
-20.57
-26.8
-32.94
-38.76
-43.94
-48.04
-50.65
-51.58
-50.79
-48.34
-44.15
-37.87
-29.08
-17.66
-4.08
10.41
24.15
35.61
43.88
48.93
51.38
52.07
51.56
50.05
47.45
43.74
39.28
34.74
30.89
28.24
26.73
25.76
24.47
22.08
18.29
13.38
7.95
2.7
-2.0
-6.08
-9.82
-13.59
-17.63
-21.96
-26.39
-30.55
-33.91
-35.87
-35.8
-33.2
-27.9
-20.17
-10.73
-0.58
9.26
17.98
25.07
30.29
33.52
34.64
33.59
30.55
26.06
21.04
16.6
13.61
12.34
12.33
12.63
12.22
10.38
6.97
2.17
-3.74
-10.56
-18.16
-26.18
-33.85
-40.05
-43.7
-44.25
-42.06
-38.34
-34.75
-32.83
-33.52
-36.94
-42.45
-48.92
-54.91
-59.01
-60.06
-57.39
-51.02
-41.67
-30.51
-18.92
-8.0
1.48
9.26
15.35
19.86
22.92
24.62
25.13
24.7
23.67
22.39
21.13
20.05
19.25
18.74
18.5
18.46
18.47
18.36
17.9
16.88
15.14
12.65
9.51
6.0
2.46
-0.81
-3.69
-6.29
-8.93
-11.97
-15.66
-19.98
-24.58
-28.8
-31.84
-32.95
-31.64
-27.85
-21.99
-14.89
-7.61
-1.12
3.9
7.23
9.13
10.2
11.18
12.72
15.14
18.44
22.3
26.26
29.92
33.13
35.91
38.36
40.38
41.64
41.58
39.74
35.96
30.59
24.39
18.14
12.41
7.33
2.68
-1.92
-6.69
-11.63
-16.48
-20.93
-24.7
-27.55
-29.24
-29.49
-27.92
-24.28
-18.49
-10.8
-1.7
8.16
18.09
27.43
35.66
42.29
46.95
49.34
49.41
47.35
43.63
38.96
34.12
29.74
26.17
23.39
21.08
18.84
16.35
13.45
10.16
6.6
2.97
-0.53
-3.7
-6.36
-8.44
-10.09
-11.66
-13.66
-16.59
-20.71
-25.92
-31.64
-36.96
-40.83
-42.3
-40.71
-35.96
-28.42
-18.96
-8.69
1.18
9.68
16.18
20.5
22.83
23.62
23.29
22.26
20.78
19.07
17.34
15.83
14.81
14.44
14.73
15.48
16.32
16.83
16.6
15.46
13.37
10.54
7.26
3.86
0.47
-2.92
-6.48
-10.41
-14.86
-19.84
-25.2
-30.61
-35.63
-39.63
-41.91
-41.77
-38.69
-32.61
-24.06
-14.1
-4.12
4.58
11.08
15.09
16.91
17.18
16.59
15.7
14.76
13.81
12.86
11.98
11.35
11.22
11.72
12.78
14.14
15.35
16.04
15.99
15.21
13.88
12.25
10.48
8.65
6.77
4.83
2.91
1.06
-0.75
-2.69
-5.02
-8.01
-11.6
-15.32
-18.29
-19.47
-18.08
-13.95
-7.58
0.0
7.62
14.33
19.56
23.17
25.25
26.03
25.76
24.68
23.05
21.1
19.12
17.35
15.98
15.16
14.94
15.28
15.91
16.48
16.53
15.78
14.13
11.75
8.93
5.93
2.86
-0.36
-3.86
-7.72
-11.94
-16.36
-20.83
-25.23
-29.52
-33.6
-37.28
-40.12
-41.52
-40.82
-37.54
-31.59
-23.43
-14.01
-4.55
3.8
10.24
14.46
16.64
17.21
16.65
15.36
13.73
12.14
11.01
10.61
10.94
11.61
11.96
11.36
9.56
6.84
3.89
1.46
-0.02
-0.61
-0.74
-0.88
-1.31
-1.94
-2.54
-2.88
-3.01
-3.22
-3.96
-5.63
-8.4
-12.14
-16.32
-20.14
-22.55
-22.53
-19.26
-12.48
-2.57
9.44
22.04
33.7
43.14
49.61
52.92
53.36
51.42
47.71
42.84
37.34
31.78
26.68
22.45
19.28
17.06
15.36
13.66
11.52
8.83
5.79
2.74
-0.0
-2.47
-4.92
-7.72
-11.04
-14.7
-18.27
-21.28
-23.49
-25.08
-26.48
-28.18
-30.42
-33.1
-35.75
-37.66
-38.12
-36.55
-32.64
-26.42
-18.33
-9.18
0.02
8.22
14.62
18.79
20.72
20.74
19.36
17.15
14.68
12.46
10.89
10.19
10.33
11.02
11.89
12.53
12.76
12.53
11.96
11.14
10.09
8.71
6.91
4.65
2.06
-0.59
-2.97
-4.83
-6.12
-6.97
-7.72
-8.83
-10.71
-13.54
-17.2
-21.11
-24.44
-26.28
-25.95
-23.19
-18.23
-11.72
-4.49
2.65
9.04
14.21
17.88
19.94
20.51
19.83
18.37
16.65
15.14
14.1
13.52
13.2
12.85
12.27
11.45
10.54
9.75
9.21
8.87
8.53
7.88
6.71
4.95
2.74
0.35
-1.91
-3.84
-5.48
-7.0
-8.76
-11.1
-14.24
-18.14
-22.37
-26.16
-28.59
-28.84
-26.45
-21.52
-14.63
-6.7
1.3
8.57
14.59
19.08
21.94
23.14
22.79
21.16
18.66
15.81
13.08
10.78
9.05
7.88
7.23
7.0
7.15
7.55
8.02
8.36
8.4
8.1
7.51
6.77
5.95
5.0
3.83
2.35
0.53
-1.57
-3.88
-6.42
-9.25
-12.45
-15.94
-19.4
-22.23
-23.71
-23.22
-20.49
-15.71
-9.47
-2.58
4.11
9.88
14.27
17.0
18.09
17.72
16.23
14.03
11.58
9.25
7.37
6.13
5.66
5.98
7.01
8.5
10.16
11.63
12.56
12.7
11.9
10.19
7.78
5.05
2.57
0.95
0.66
1.88
4.33
7.28
9.7
10.59
9.27
5.7
0.56
-4.98
-9.67
-12.5
-13.09
-11.58
-8.55
-4.7
-0.66
3.08
6.13
8.14
8.9
8.31
6.55
4.0
1.18
-1.42
-3.45
-4.72
-5.19
-4.87
-3.78
-2.02
0.17
2.47
4.47
5.88
6.62
6.81
6.67
6.29
5.58
4.33
2.32
-0.5
-3.91
-7.6
-11.32
-14.93
-18.44
-21.71
-24.4
-25.96
-25.82
-23.63
-19.5
-13.93
-7.69
-1.55
3.88
8.23
11.32
13.06
13.47
12.62
10.69
8.04
5.12
2.44
0.42
-0.65
-0.7
0.12
1.48
2.97
4.14
4.61
4.13
2.59
0.09
-3.17
-6.86
-10.61
-14.08
-17.04
-19.39
-21.25
-22.87
-24.56
-26.57
-28.88
-31.17
-32.76
-32.9
-30.99
-26.8
-20.66
-13.33
-5.75
1.22
7.03
11.42
14.33
15.77
15.76
14.41
11.97
8.91
5.78
3.03
0.89
-0.63
-1.7
-2.47
-3.05
-3.52
-4.03
-4.77
-5.91
-7.52
-9.45
-11.48
-13.44
-15.31
-17.32
-19.76
-22.82
-26.43
-30.23
-33.64
-36.02
-36.77
-35.48
-32.06
-26.71
-20.01
-12.73
-5.71
0.36
5.08
8.29
10.03
10.38
9.46
7.48
4.8
1.98
-0.37
-1.77
-2.02
-1.33
-0.12
1.1
1.95
2.21
1.84
0.84
-0.73
-2.77
-5.11
-7.53
-9.81
-11.94
-14.14
-16.82
-20.33
-24.71
-29.46
-33.71
-36.44
-36.8
-34.46
-29.57
-22.71
-14.67
-6.26
1.79
8.85
14.51
18.54
20.99
22.12
22.26
21.73
20.71
19.35
17.76
16.14
14.71
13.62
12.87
12.3
11.62
10.52
8.88
6.67
4.06
1.27
-1.52
-4.18
-6.66
-8.97
-11.15
-13.32
-15.64
-18.26
-21.28
-24.58
-27.7
-29.96
-30.58
-28.99
-25.09
-19.32
-12.49
-5.57
0.72
6.02
10.29
13.68
16.31
18.23
19.38
19.76
19.51
18.95
18.46
18.37
18.8
19.65
20.62
21.4
21.8
21.77
21.44
20.94
20.32
19.48
18.26
16.57
14.48
12.23
10.15
8.42
6.93
5.2
2.62
-1.36
-6.93
-13.85
-21.52
-29.11
-35.84
-41.01
-44.08
-44.69
-42.66
-38.16
-31.65
-23.91
-15.78
-7.9
-0.55
6.34
12.94
19.3
25.18
30.12
33.69
35.77
36.58
36.6
36.34
36.12
35.99
35.9
35.77
35.66
35.66
35.78
35.88
35.65
34.71
32.84
30.03
26.5
22.59
18.69
15.04
11.79
8.88
6.21
3.6
0.88
-2.02
-5.1
-8.28
-11.41
-14.41
-17.35
-20.43
-23.96
-28.2
-33.23
-38.74
-44.08
-48.33
-50.55
-50.07
-46.65
-40.54
-32.42
-23.16
-13.66
-4.7
3.13
9.46
14.14
17.19
18.82
19.36
19.24
18.91
18.73
18.98
19.75
20.96
22.43
23.94
25.31
26.44
27.32
27.93
28.25
28.22
27.77
26.85
25.47
23.66
21.47
18.98
16.26
13.39
10.47
7.51
4.52
1.44
-1.75
-5.04
-8.31
-11.4
-14.25
-16.88
-19.54
-22.53
-26.15
-30.53
-35.53
-40.65
-45.18
-48.25
-49.08
-47.22
-42.64
-35.74
-27.35
-18.39
-9.73
-1.99
4.53
9.79
13.88
16.94
19.11
20.49
21.24
21.52
21.56
21.62
21.95
22.64
23.65
24.76
25.68
26.13
26.01
25.39
24.42
23.28
22.04
20.63
18.96
16.95
14.66
12.25
9.88
7.63
5.4
3.0
0.18
-3.12
-6.76
-10.42
-13.7
-16.4
-18.61
-20.73
-23.35
-26.99
-31.8
-37.48
-43.24
-48.0
-50.71
-50.65
-47.61
-41.95
-34.44
-25.99
-17.39
-9.19
-1.69
4.98
10.76
15.56
19.31
21.97
23.59
24.34
24.49
24.36
24.25
24.34
24.68
25.18
25.73
26.25
26.73
27.19
27.56
27.67
27.27
26.12
24.19
21.67
18.95
16.4
14.26
12.5
10.89
9.12
6.99
4.48
1.69
-1.2
-4.08
-6.93
-9.79
-12.77
-15.97
-19.54
-23.6
-28.16
-33.05
-37.74
-41.48
-43.44
-43.02
-40.06
-34.96
-28.43
-21.3
-14.23
-7.57
-1.47
3.99
8.67
12.4
15.0
16.46
16.99
16.96
16.77
16.72
16.93
17.35
17.88
18.44
19.04
19.72
20.51
21.37
22.11
22.42
22.01
20.69
18.47
15.64
12.64
9.92
7.68
5.85
4.09
2.08
-0.39
-3.21
-6.09
-8.69
-10.89
-12.75
-14.54
-16.55
-18.93
-21.71
-24.7
-27.6
-29.96
-31.21
-30.76
-28.23
-23.54
-17.08
-9.59
-1.93
5.17
11.31
16.41
20.53
23.67
25.67
26.26
25.24
22.7
19.1
15.14
11.61
9.09
7.84
7.72
8.36
9.26
9.94
10.01
9.29
7.74
5.52
2.83
-0.13
-3.21
-6.4
-9.72
-13.25
-17.01
-20.96
-24.82
-27.93
-29.33
-27.88
-22.67
-13.51
-1.16
12.75
26.09
36.93
44.02
47.07
46.66
43.84
39.83
35.64
31.92
28.96
26.69
24.84
23.21
21.66
20.25
19.08
18.16
17.31
16.24
14.68
12.48
9.72
6.61
3.37
0.13
-3.11
-6.31
-9.39
-12.07
-13.96
-14.72
-14.23
-12.75
-10.89
-9.5
-9.26
-10.5
-13.02
-16.24
-19.52
-22.46
-25.07
-27.66
-30.58
-34.01
-37.82
-41.73
-45.34
-48.28
-50.24
-50.91
-50.08
-47.7
-43.87
-38.87
-33.02
-26.58
-19.74
-12.66
-5.62
0.96
6.65
11.13
14.4
16.74
18.59
20.25
21.74
22.79
22.94
21.77
19.17
15.36
10.91
6.54
3.05
1.15
1.33
3.76
8.26
14.22
20.74
26.86
31.72
34.72
35.44
33.57
28.79
20.86
9.77
-4.05
-19.63
-35.64
-50.59
-63.24
-72.71
-78.62
-80.94
-79.85
-75.61
-68.51
-58.84
-46.94
-33.28
-18.42
-3.0
12.38
27.24
41.21
54.11
65.87
76.58
86.38
95.45
103.91
111.65
118.26
123.05
125.3
124.47
120.53
113.96
105.63
96.48
87.24
78.23
69.4
60.43
50.92
40.5
28.93
16.18
2.43
-11.92
-26.32
-40.16
-52.85
-64.01
-73.5
-81.35
-87.68
-92.52
-95.69
-96.94
-96.18
-93.79
-90.76
-88.55
-88.54
-91.49
-97.01
-103.71
-109.63
-113.11
-113.48
-111.21
-107.64
-104.3
-102.2
-101.53
-101.61
-101.08
-97.89
-89.25
-71.96
-43.52
-3.9
43.17
90.34
128.66
150.81
153.94
140.53
116.84
89.78
64.14
41.4
20.73
0.92
-18.03
-34.68
-47.16
-54.48
-57.15
-56.68
-54.51
-51.11
-45.75
-37.02
-23.92
-6.74
12.83
32.15
48.78
61.29
69.59
74.52
77.09
77.91
77.07
74.47
70.18
64.54
57.85
50.05
40.63
29.01
15.13
-0.25
-15.69
-29.75
-41.68
-51.7
-60.61
-68.98
-76.47
-81.71
-82.86
-78.49
-68.38
-53.67
-36.34
-18.49
-1.57
13.74
27.34
39.19
48.98
56.04
59.58
58.87
53.51
43.58
29.55
12.37
-6.76
-26.5
-45.57
-62.95
-77.93
-90.2
-99.75
-106.94
-112.48
-117.37
-122.7
-129.33
-137.48
-146.49
-154.88
-160.73
-162.53
-159.65
-152.64
-142.82
-131.5
-119.17
-105.26
-88.55
-68.06
-43.93
-17.57
8.84
33.35
54.97
73.78
90.41
105.36
118.64
129.95
139.23
146.95
153.98
160.88
167.31
171.91
172.95
169.31
161.28
150.69
140.12
131.85
126.94
124.9
124.34
123.76
122.38
120.28
118.09
116.31
114.92
113.41
111.1
107.65
103.13
97.7
91.03
82.06
69.3
51.73
29.71
5.24
-18.66
-39.07
-54.34
-64.34
-69.96
-72.11
-71.03
-66.36
-57.84
-46.06
-32.75
-20.17
-10.2
-3.53
0.49
3.22
5.87
8.91
12.14
15.07
17.31
18.7
18.96
17.32
12.52
3.39
-10.26
-26.88
-43.27
-55.63
-61.14
-59.23
-51.93
-43.21
-37.58
-38.7
-48.38
-66.18
-89.56
-114.42
-136.06
-150.37
-154.97
-149.86
-137.35
-121.13
-104.93
-91.31
-81.22
-74.3
-69.58
-66.15
-63.42
-61.08
-58.87
-56.37
-53.11
-48.7
-43.02
-36.35
-29.34
-22.72
-16.98
-11.92
-6.72
-0.22
8.28
18.37
28.31
35.52
37.54
33.03
22.34
7.46
-8.6
-22.69
-32.3
-36.16
-34.51
-28.99
-22.12
-16.41
-13.42
-13.11
-13.85
-13.16
-8.81
0.08
12.59
26.3
38.16
45.74
48.16
46.4
42.84
40.13
39.95
42.3
45.61
47.64
46.74
42.73
36.95
31.45
27.87
26.56
26.34
25.07
20.62
11.88
-0.83
-15.84
-30.87
-43.75
-52.98
-57.82
-58.12
-54.12
-46.35
-35.88
-24.38
-13.99
-6.82
-4.27
-6.43
-12.07
-19.15
-25.5
-29.66
-31.12
-30.23
-27.75
-24.34
-20.02
-14.21
-6.0
5.2
19.01
33.78
46.99
56.09
59.52
57.36
51.17
43.29
35.81
29.77
25.1
20.99
16.7
11.98
7.15
2.69
-1.12
-4.49
-7.96
-11.99
-16.68
-21.6
-26.02
-29.34
-31.45
-32.84
-34.44
-37.12
-41.24
-46.3
-50.94
-53.43
-52.34
-47.18
-38.66
-28.41
-18.11
-8.75
-0.23
8.31
17.65
27.65
37.05
43.97
46.87
45.45
40.82
35.02
30.14
27.5
27.4
29.32
32.33
35.44
37.67
38.18
36.38
32.19
26.26
19.92
14.75
12.0
12.01
13.92
15.84
15.37
10.48
0.32
-14.24
-30.64
-45.4
-55.31
-58.58
-55.58
-48.57
-40.74
-34.94
-32.63
-33.59
-36.23
-38.42
-38.28
-34.7
-27.51
-17.36
-5.41
7.11
19.25
30.61
41.24
51.26
60.46
68.02
72.76
73.65
70.49
64.21
56.53
49.31
43.78
40.13
37.65
35.29
32.29
28.68
25.06
22.32
21.09
21.45
22.95
24.77
26.02
26.06
24.5
21.38
17.1
12.43
8.25
5.3
3.86
3.66
4.01
4.12
3.47
2.02
0.19
-1.41
-2.17
-1.56
0.77
4.91
10.62
17.11
23.3
28.08
30.66
30.84
28.8
24.79
18.84
10.84
0.95
-10.09
-20.86
-29.74
-35.58
-38.28
-38.73
-38.28
-37.87
-37.45
-35.94
-31.76
-23.65
-11.18
5.03
23.59
42.79
60.86
76.04
86.58
90.98
88.49
79.7
66.73
52.72
40.89
33.36
30.59
31.55
34.45
37.69
40.34
42.1
42.86
42.4
40.32
36.28
30.38
23.3
16.15
10.05
5.79
3.6
3.18
3.99
5.4
6.99
8.64
10.39
12.32
14.4
16.32
17.6
17.71
16.3
13.19
8.38
1.8
-6.76
-17.56
-30.4
-44.29
-57.22
-66.61
-70.19
-67.04
-58.1
-45.91
-33.7
-24.15
-18.64
-17.1
-18.59
-21.91
-26.14
-30.59
-34.58
-37.22
-37.48
-34.53
-28.24
-19.32
-9.29
0.06
7.27
11.64
13.49
13.88
14.09
15.06
17.09
19.74
22.26
23.95
24.54
24.22
23.44
22.69
22.21
22.03
21.99
22.0
21.98
21.95
21.87
21.58
20.87
19.57
17.67
15.34
12.83
10.38
8.04
5.78
3.5
1.23
-0.9
-2.7
-4.16
-5.4
-6.74
-8.45
-10.65
-13.21
-15.88
-18.38
-20.44
-21.81
-22.24
-21.45
-19.26
-15.78
-11.44
-6.97
-3.19
-0.76
0.01
-0.85
-3.02
-6.05
-9.43
-12.58
-14.96
-16.03
-15.45
-13.11
-9.25
-4.39
0.82
5.73
9.87
13.0
15.06
16.16
16.47
16.17
15.35
14.06
12.34
10.28
8.12
6.13
4.65
3.8
3.5
3.44
3.19
2.36
0.74
-1.61
-4.45
-7.4
-10.06
-12.11
-13.34
-13.65
-13.0
-11.38
-8.82
-5.37
-1.1
3.8
9.05
14.22
18.78
22.17
23.86
23.45
20.73
15.79
9.22
2.18
-3.67
-6.62
-5.46
-0.08
8.33
17.67
25.67
30.67
32.1
30.43
26.65
21.73
16.25
10.47
4.62
-1.0
-5.93
-9.76
-12.29
-13.68
-14.25
-14.4
-14.42
-14.43
-14.43
-14.31
-13.86
-12.89
-11.22
-8.77
-5.6
-1.87
2.2
6.43
10.7
14.86
18.55
21.18
22.05
20.59
16.71
10.9
4.17
-2.28
-7.46
-10.81
-12.25
-12.11
-10.9
-9.19
-7.47
-6.16
-5.5
-5.57
-6.29
-7.47
-8.93
-10.48
-12.02
-13.45
-14.7
-15.72
-16.52
-17.23
-18.02
-19.06
-20.37
-21.77
-22.88
-23.25
-22.47
-20.34
-16.95
-12.61
-7.85
-3.22
0.85
4.07
6.38
7.86
8.7
9.07
9.14
9.03
8.84
8.65
8.55
8.59
8.78
9.12
9.52
9.87
10.04
9.92
9.45
8.64
7.56
6.28
4.86
3.3
1.56
-0.47
-2.93
-5.91
-9.41
-13.3
-17.27
-20.84
-23.42
-24.49
-23.7
-21.0
-16.73
-11.48
-6.01
-1.02
2.97
5.71
7.25
7.86
7.9
7.68
7.44
7.22
6.96
6.59
6.13
5.66
5.33
5.21
5.24
5.28
5.14
4.68
3.93
2.99
1.99
1.0
-0.01
-1.13
-2.44
-3.98
-5.75
-7.7
-9.79
-12.0
-14.23
-16.3
-17.86
-18.48
-17.72
-15.32
-11.35
-6.28
-0.87
4.05
7.8
10.1
11.0
10.81
9.92
8.66
7.22
5.8
4.55
3.62
3.13
3.08
3.42
4.01
4.7
5.36
5.89
6.21
6.24
5.96
5.39
4.56
3.55
2.37
1.04
-0.49
-2.27
-4.41
-6.98
-9.99
-13.3
-16.6
-19.4
-21.15
-21.35
-19.76
-16.43
-11.75
-6.37
-1.01
3.71
7.41
10.03
11.74
12.78
13.36
13.56
13.37
12.82
12.06
11.27
10.66
10.31
10.11
9.9
9.52
8.96
8.34
7.85
7.58
7.47
7.31
6.87
6.02
4.76
3.25
1.67
0.11
-1.43
-3.08
-4.97
-7.19
-9.7
-12.37
-14.92
-17.04
-18.34
-18.43
-17.08
-14.27
-10.22
-5.36
-0.23
4.68
9.04
12.65
15.47
17.46
18.64
19.03
18.72
17.84
16.61
15.27
14.0
12.95
12.16
11.61
11.26
11.07
10.98
10.9
10.7
10.27
9.49
8.35
6.92
5.28
3.5
1.58
-0.46
-2.59
-4.69
-6.63
-8.3
-9.7
-10.88
-11.97
-13.08
-14.28
-15.65
-17.19
-18.9
-20.68
-22.27
-23.3
-23.32
-21.99
-19.23
-15.28
-10.62
-5.84
-1.46
2.21
5.1
7.35
9.1
10.49
11.52
12.14
12.26
11.9
11.15
10.17
9.13
8.12
7.19
6.35
5.61
5.01
4.57
4.28
4.09
3.92
3.71
3.48
3.26
3.1
3.0
2.9
2.7
2.31
1.63
0.62
-0.71
-2.3
-4.04
-5.8
-7.5
-9.15
-10.82
-12.62
-14.65
-16.89
-19.23
-21.41
-23.1
-23.97
-23.69
-22.1
-19.24
-15.39
-11.03
-6.68
-2.76
0.49
3.09
5.16
6.85
8.27
9.41
10.21
10.65
10.76
10.61
10.33
10.03
9.76
9.52
9.3
9.07
8.85
8.68
8.54
8.37
8.04
7.37
6.24
4.64
2.71
0.72
-1.06
-2.4
-3.24
-3.69
-3.96
-4.31
-4.86
-5.65
-6.58
-7.55
-8.53
-9.62
-10.98
-12.68
-14.66
-16.64
-18.25
-19.1
-18.95
-17.75
-15.63
-12.8
-9.49
-5.93
-2.34
1.08
4.14
6.69
8.65
10.01
10.83
11.2
11.22
10.99
10.59
10.12
9.66
9.31
9.14
9.18
9.41
9.74
10.06
10.27
10.22
9.83
9.03
7.85
6.4
4.87
3.42
2.17
1.13
0.21
-0.72
-1.75
-2.92
-4.22
-5.64
-7.2
-8.87
-10.61
-12.29
-13.79
-14.99
-15.93
-16.78
-17.81
-19.3
-21.34
-23.81
-26.28
-28.17
-28.93
-28.15
-25.78
-22.09
-17.58
-12.79
-8.15
-3.88
-0.05
3.34
6.23
8.56
10.27
11.32
11.79
11.8
11.48
10.94
10.25
9.5
8.86
8.53
8.65
9.29
10.35
11.61
12.82
13.76
14.36
14.63
14.62
14.37
13.86
13.03
11.84
10.32
8.55
6.69
4.95
3.48
2.4
1.74
1.46
1.42
1.45
1.37
1.07
0.53
-0.22
-1.09
-2.08
-3.2
-4.52
-6.05
-7.71
-9.37
-10.85
-12.09
-13.15
-14.2
-15.48
-17.13
-19.17
-21.48
-23.87
-26.11
-27.96
-29.16
-29.4
-28.43
-26.11
-22.53
-18.05
-13.18
-8.43
-4.12
-0.37
2.87
5.67
8.04
9.9
11.19
11.9
12.12
12.04
11.83
11.68
11.71
11.96
12.41
12.96
13.5
13.94
14.27
14.55
14.79
14.95
14.9
14.46
13.56
12.31
10.94
9.68
8.63
7.68
6.63
5.34
3.9
2.54
1.58
1.14
1.11
1.15
0.92
0.22
-0.87
-2.16
-3.43
-4.63
-5.86
-7.25
-8.86
-10.65
-12.54
-14.41
-16.3
-18.29
-20.45
-22.76
-25.06
-27.05
-28.47
-29.15
-29.01
-28.1
-26.45
-24.09
-21.08
-17.54
-13.71
-9.91
-6.52
-3.79
-1.78
-0.39
0.63
1.48
2.32
3.21
4.28
5.73
7.83
10.88
14.97
19.99
25.61
31.32
36.58
40.87
43.79
45.07
44.67
42.78
39.82
36.28
32.65
29.17
25.84
22.5
18.97
15.16
11.06
6.64
1.82
-3.53
-9.46
-15.74
-21.82
-27.0
-30.61
-32.46
-32.82
-32.44
-32.22
-32.89
-34.9
-38.24
-42.59
-47.35
-51.65
-54.44
-54.64
-51.53
-44.98
-35.62
-24.69
-13.56
-3.29
5.71
13.52
20.45
26.61
31.82
35.71
38.0
38.78
38.43
37.47
36.18
34.57
32.43
29.55
25.98
22.11
18.46
15.54
13.56
12.45
11.88
11.42
10.72
9.62
8.12
6.37
4.56
2.85
1.34
0.06
-0.99
-1.9
-2.74
-3.56
-4.39
-5.17
-5.86
-6.39
-6.76
-7.05
-7.38
-7.88
-8.59
-9.47
-10.39
-11.24
-11.96
-12.57
-13.12
-13.59
-13.9
-13.86
-13.31
-12.12
-10.24
-7.74
-4.73
-1.39
2.1
5.52
8.61
11.18
13.1
14.38
15.15
15.6
15.84
15.93
15.85
15.57
15.13
14.62
14.18
13.93
13.94
14.18
14.53
14.84
15.02
15.03
14.92
14.76
14.53
14.18
13.56
12.58
11.19
9.44
7.46
5.41
3.41
1.59
0.01
-1.33
-2.5
-3.63
-4.87
-6.29
-7.85
-9.41
-10.84
-12.12
-13.28
-14.37
-15.33
-15.95
-15.93
-15.02
-13.17
-10.56
-7.51
-4.36
-1.34
1.46
4.0
6.21
7.92
8.97
9.24
8.82
7.97
6.99
6.16
5.56
5.09
4.55
3.77
2.69
1.39
0.04
-1.23
-2.36
-3.42
-4.49
-5.66
-6.92
-8.21
-9.41
-10.45
-11.33
-12.13
-13.0
-14.08
-15.47
-17.17
-19.1
-21.07
-22.86
-24.24
-25.0
-25.08
-24.45
-23.2
-21.44
-19.28
-16.77
-13.89
-10.63
-6.99
-3.11
0.71
4.06
6.55
7.93
8.2
7.59
6.47
5.25
4.18
3.38
2.86
2.57
2.5
2.65
3.05
3.69
4.52
5.46
6.41
7.17
7.51
7.21
6.09
4.12
1.39
-1.84
-5.26
-8.59
-11.6
-14.13
-16.13
-17.58
-18.49
-18.91
-18.89
-18.47
-17.66
-16.43
-14.76
-12.66
-10.19
-7.47
-4.67
-1.9
0.71
3.04
4.99
6.41
7.2
7.31
6.85
6.02
5.1
4.29
3.71
3.34
3.12
2.97
2.89
2.87
2.91
2.96
2.93
2.77
2.41
1.84
1.05
0.04
-1.19
-2.59
-4.08
-5.57
-7.0
-8.38
-9.72
-10.99
-12.06
-12.66
-12.43
-11.15
-8.75
-5.41
-1.48
2.59
6.46
9.81
12.5
14.46
15.69
16.26
16.26
15.8
14.95
13.77
12.34
10.74
9.12
7.63
6.4
5.46
4.74
4.1
3.36
2.42
1.25
-0.09
-1.47
-2.79
-3.99
-5.1
-6.23
-7.51
-9.1
-11.06
-13.35
-15.79
-18.14
-20.1
-21.43
-21.87
-21.29
-19.61
-16.89
-13.33
-9.23
-4.97
-0.88
2.75
5.81
8.23
10.08
11.38
12.19
12.54
12.5
12.14
11.55
10.87
10.22
9.7
9.39
9.28
9.32
9.37
9.25
8.78
7.84
6.43
4.62
2.59
0.54
-1.42
-3.24
-4.99
-6.77
-8.66
-10.65
-12.7
-14.73
-16.61
-18.17
-19.16
-19.23
-18.04
-15.42
-11.49
-6.63
-1.41
3.58
7.99
11.72
14.88
17.58
19.83
21.5
22.41
22.43
21.63
20.26
18.7
17.27
16.11
15.23
14.5
13.78
13.02
12.24
11.5
10.84
10.22
9.51
8.59
7.34
5.76
3.91
1.91
-0.1
-2.02
-3.77
-5.34
-6.75
-8.1
-9.52
-11.15
-13.09
-15.34
-17.79
-20.25
-22.45
-24.07
-24.8
-24.3
-22.39
-19.0
-14.35
-8.89
-3.25
1.93
6.19
9.3
11.35
12.63
13.49
14.19
14.85
15.39
15.67
15.57
15.09
14.42
13.82
13.53
13.69
14.22
14.94
15.54
15.76
15.4
14.37
12.71
10.56
8.12
5.54
2.88
0.09
-2.97
-6.46
-10.43
-14.84
-19.53
-24.2
-28.51
-32.09
-34.65
-35.99
-36.13
-35.27
-33.67
-31.6
-29.16
-26.29
-22.81
-18.58
-13.55
-7.87
-1.84
4.23
9.98
15.18
19.69
23.45
26.51
28.97
30.92
32.45
33.59
34.3
34.51
34.18
33.37
32.19
30.76
29.2
27.49
25.52
23.19
20.51
17.58
14.6
11.74
9.07
6.5
3.9
1.15
-1.73
-4.59
-7.25
-9.58
-11.64
-13.56
-15.59
-17.88
-20.47
-23.18
-25.81
-28.12
-30.04
-31.59
-32.85
-33.87
-34.59
-34.8
-34.24
-32.72
-30.23
-26.88
-22.95
-18.8
-14.81
-11.44
-9.12
-8.22
-8.84
-10.74
-13.32
-15.84
-17.68
-18.65
-19.11
-19.88
-21.93
-26.0
-32.34
-40.51
-49.53
-58.11
-64.99
-69.29
-70.68
-69.29
-65.5
-59.51
-51.05
-39.18
-22.43
0.66
30.99
68.12
109.95
152.67
191.44
221.38
238.79
242.02
231.74
210.38
180.97
146.02
106.95
64.43
19.38
-26.01
-68.04
-102.31
-125.19
-135.24
-133.59
-123.28
-107.7
-89.35
-69.31
-47.67
-24.45
-0.41
22.79
42.98
58.25
67.43
70.31
67.49
59.98
48.91
35.42
20.72
6.24
-6.27
-15.22
-19.88
-21.3
-22.52
-27.88
-41.27
-64.32
-95.42
-130.18
-163.12
-189.57
-206.7
-213.44
-209.5
-194.45
-167.64
-128.95
-79.71
-23.2
35.94
92.89
144.03
187.66
223.69
252.85
275.59
291.54
299.66
299.01
289.67
273.13
252.02
229.05
205.85
182.38
157.31
129.22
97.87
64.84
32.95
4.76
-18.94
-39.86
-61.52
-87.44
-119.07
-154.58
-189.04
-216.05
-230.06
-228.23
-211.1
-182.0
-145.67
-106.86
-69.53
-36.63
-10.29
8.0
17.5
18.45
12.14
0.89
-12.48
-25.2
-35.15
-41.29
-43.8
-43.97
-43.73
-45.11
-49.47
-57.13
-67.25
-78.22
-88.12
-95.08
-97.46
-93.65
-82.11
-61.59
-31.72
6.45
50.19
95.49
137.92
173.74
200.65
217.92
226.12
226.48
220.57
210.1
196.99
183.29
170.94
161.26
154.64
150.45
147.39
144.04
139.18
131.73
120.6
104.53
82.43
54.02
20.45
-15.68
-50.92
-82.14
-107.61
-127.36
-142.67
-155.11
-165.66
-174.43
-180.96
-184.84
-186.18
-185.65
-184.1
-182.2
-180.15
-177.75
-174.63
-170.5
-165.26
-159.02
-151.98
-144.31
-136.05
-127.09
-117.22
-106.34
-94.58
-82.42
-70.63
-59.99
-51.02
-43.81
-38.04
-33.23
-29.01
-25.41
-22.77
-21.55
-22.01
-23.97
-26.84
-29.78
-32.02
-33.13
-33.11
-32.28
-31.11
-29.98
-29.06
-28.34
-27.76
-27.33
-27.29
-28.04
-30.04
-33.63
-38.81
-45.23
-52.19
-58.8
-64.12
-67.27
-67.55
-64.54
-58.19
-48.93
-37.62
-25.45
-13.58
-2.9
6.2
13.84
20.5
26.73
32.92
39.15
45.22
50.8
55.53
59.17
61.62
62.99
63.51
63.61
63.78
64.46
65.94
68.22
70.97
73.64
75.6
76.35
75.53
73.02
68.8
62.97
55.81
47.78
39.48
31.51
24.27
17.86
12.1
6.76
1.76
-2.73
-6.37
-8.86
-10.1
-10.29
-9.79
-8.87
-7.61
-5.83
-3.34
-0.06
3.87
8.08
12.14
15.7
18.66
21.04
23.01
24.73
26.22
27.47
28.35
28.8
28.75
28.21
27.17
25.52
23.11
19.79
15.48
10.33
4.62
-1.31
-7.26
-13.19
-19.22
-25.43
-31.78
-38.14
-44.34
-50.21
-55.55
-59.96
-62.84
-63.54
-61.72
-57.64
-51.99
-45.44
-38.1
-29.41
-18.46
-4.66
11.74
29.72
48.13
66.33
84.51
103.22
122.65
142.0
159.61
173.57
182.64
186.55
185.91
181.73
174.99
166.76
158.39
151.67
148.43
149.89
155.83
164.52
173.13
178.78
179.56
174.93
165.57
152.76
137.77
121.56
104.9
88.62
73.64
60.82
50.66
43.08
37.4
32.7
28.2
23.62
19.2
15.47
12.91
11.64
11.38
11.53
11.43
10.6
8.82
6.08
2.53
-1.54
-5.76
-9.7
-12.88
-14.97
-15.89
-15.87
-15.34
-14.78
-14.49
-14.44
-14.28
-13.58
-12.0
-9.55
-6.63
-3.93
-2.27
-2.47
-5.17
-10.9
-19.93
-32.18
-46.93
-62.79
-77.89
-90.42
-99.45
-105.35
-109.75
-114.9
-122.69
-133.94
-148.16
-163.94
-179.73
-194.29
-206.96
-217.38
-225.2
-229.87
-230.8
-227.62
-220.47
-209.94
-196.93
-182.29
-166.65
-150.35
-133.57
-116.54
-99.67
-83.52
-68.73
-55.86
-45.29
-37.15
-31.36
-27.57
-25.2
-23.47
-21.53
-18.68
-14.5
-9.01
-2.56
4.25
10.79
16.54
21.2
24.63
26.88
28.02
28.15
27.3
25.5
22.82
19.48
15.83
12.35
9.48
7.46
6.32
5.81
5.66
5.6
5.51
5.43
5.48
5.72
6.14
6.62
6.97
7.02
6.6
5.64
4.08
1.96
-0.62
-3.47
-6.38
-9.14
-11.58
-13.64
-15.31
-16.72
-18.08
-19.61
-21.46
-23.56
-25.59
-27.0
-27.14
-25.56
-22.16
-17.27
-11.55
-5.73
-0.35
4.3
8.19
11.42
14.06
16.23
18.09
19.86
21.85
24.29
27.28
30.62
33.97
36.94
39.25
40.86
41.85
42.39
42.54
42.24
41.36
39.78
37.51
34.76
31.9
29.28
27.17
25.58
24.3
22.98
21.23
18.78
15.62
11.91
7.92
3.94
0.14
-3.42
-6.75
-9.92
-12.99
-16.08
-19.29
-22.68
-26.12
-29.17
-31.18
-31.41
-29.35
-24.95
-18.67
-11.43
-4.24
2.12
7.2
10.95
13.49
14.95
15.41
14.91
13.55
11.59
9.42
7.36
5.58
3.91
1.97
-0.71
-4.38
-8.95
-14.01
-18.94
-23.19
-26.35
-28.34
-29.24
-29.27
-28.7
-27.72
-26.53
-25.29
-24.13
-23.17
-22.41
-21.77
-21.1
-20.26
-19.16
-17.85
-16.48
-15.31
-14.65
-14.75
-15.75
-17.59
-20.01
-22.59
-24.79
-26.08
-26.02
-24.37
-21.17
-16.69
-11.43
-6.0
-0.97
3.15
6.09
7.8
8.48
8.47
8.16
7.83
7.64
7.58
7.57
7.51
7.36
7.15
6.87
6.48
5.87
4.93
3.62
2.0
0.23
-1.52
-3.13
-4.57
-5.93
-7.33
-8.86
-10.52
-12.17
-13.58
-14.42
-14.38
-13.16
-10.62
-6.77
-1.97
3.11
7.65
10.87
12.34
12.16
10.93
9.57
9.0
9.83
12.29
16.13
20.84
25.77
30.23
33.59
35.35
35.23
33.25
29.86
25.85
22.15
19.57
18.54
18.96
20.3
21.76
22.6
22.28
20.54
17.44
13.3
8.79
4.94
2.93
3.81
8.07
15.38
24.65
34.36
43.04
49.63
53.71
55.28
54.58
51.92
47.64
42.18
36.12
30.12
24.74
20.19
16.35
12.84
9.19
5.18
0.9
-3.33
-7.13
-10.28
-12.77
-14.81
-16.57
-18.11
-19.26
-19.71
-19.14
-17.37
-14.41
-10.5
-5.99
-1.34
3.03
6.83
9.92
12.31
14.07
15.25
15.8
15.57
14.39
12.19
9.1
5.47
1.78
-1.5
-4.07
-5.89
-7.12
-8.01
-8.81
-9.68
-10.68
-11.74
-12.81
-13.82
-14.71
-15.34
-15.57
-15.36
-14.84
-14.34
-14.32
-15.12
-16.76
-18.89
-20.85
-22.01
-21.95
-20.59
-18.14
-14.91
-11.17
-7.06
-2.71
1.65
5.72
9.14
11.67
13.32
14.31
14.99
15.72
16.71
18.0
19.45
20.82
21.82
22.26
22.06
21.29
20.13
18.77
17.35
15.88
14.32
12.61
10.75
8.83
6.95
5.21
3.59
2.03
0.41
-1.31
-3.1
-4.87
-6.54
-8.07
-9.52
-10.92
-12.24
-13.3
-13.77
-13.28
-11.53
-8.51
-4.51
-0.05
4.25
7.91
10.67
12.53
13.66
14.25
14.4
14.14
13.42
12.21
10.61
8.78
6.96
5.37
4.16
3.35
2.87
2.6
2.43
2.29
2.14
2.0
1.85
1.69
1.47
1.13
0.6
-0.26
-1.58
-3.43
-5.81
-8.59
-11.44
-13.93
-15.61
-16.07
-15.1
-12.71
-9.15
-4.8
-0.18
4.22
7.95
10.69
12.23
12.57
11.91
10.59
9.02
7.55
6.38
5.55
5.0
4.7
4.7
5.06
5.81
6.85
7.9
8.67
8.91
8.53
7.57
6.24
4.75
3.24
1.77
0.34
-1.13
-2.74
-4.58
-6.69
-9.03
-11.36
-13.28
-14.33
-14.09
-12.37
-9.29
-5.24
-0.76
3.58
7.37
10.32
12.37
13.56
14.02
13.93
13.45
12.72
11.86
11.0
10.24
9.7
9.47
9.55
9.86
10.28
10.65
10.88
10.9
10.67
10.14
9.25
7.98
6.32
4.36
2.22
0.01
-2.19
-4.36
-6.48
-8.51
-10.43
-12.18
-13.69
-14.79
-15.23
-14.82
-13.36
-10.82
-7.39
-3.4
0.71
4.55
7.8
10.33
12.13
13.29
13.91
14.1
13.99
13.65
13.18
12.67
12.2
11.84
11.58
11.36
11.06
10.6
9.96
9.22
8.49
7.85
7.35
6.86
6.22
5.28
3.94
2.28
0.46
-1.33
-2.93
-4.27
-5.4
-6.42
-7.47
-8.7
-10.24
-12.19
-14.53
-17.04
-19.28
-20.62
-20.48
-18.53
-14.86
-10.01
-4.79
-0.02
3.73
6.32
7.89
8.81
9.38
9.75
9.94
9.88
9.61
9.23
8.95
8.87
9.05
9.35
9.63
9.77
9.81
9.88
10.09
10.39
10.57
10.36
9.56
8.16
6.42
4.71
3.34
2.42
1.84
1.32
0.63
-0.32
-1.52
-2.82
-4.08
-5.25
-6.36
-7.51
-8.87
-10.6
-12.76
-15.24
-17.67
-19.49
-20.14
-19.23
-16.74
-13.02
-8.68
-4.31
-0.39
2.87
5.4
7.23
8.38
8.93
9.03
8.85
8.56
8.29
8.08
7.9
7.77
7.77
7.97
8.41
9.05
9.73
10.22
10.32
9.89
8.92
7.49
5.82
4.22
2.99
2.37
2.42
3.05
3.99
4.9
5.52
5.68
5.36
4.67
3.76
2.79
1.86
0.99
0.09
-0.92
-2.19
-3.76
-5.58
-7.47
-9.1
-10.09
-10.1
-8.91
-6.5
-3.03
1.1
5.37
9.24
12.2
13.93
14.31
13.46
11.7
9.45
7.16
5.25
3.99
3.47
3.61
4.21
5.03
5.91
6.8
7.77
8.91
10.24
11.68
13.01
14.02
14.51
14.39
13.69
12.5
10.94
9.15
7.28
5.49
3.94
2.72
1.93
1.54
1.48
1.6
1.71
1.6
1.07
-0.01
-1.63
-3.71
-6.01
-8.26
-10.16
-11.46
-12.0
-11.67
-10.51
-8.63
-6.25
-3.66
-1.16
1.01
2.66
3.73
4.25
4.27
3.88
3.18
2.33
1.48
0.81
0.43
0.4
0.67
1.13
1.64
2.07
2.38
2.57
2.75
2.96
3.24
3.49
3.6
3.51
3.22
2.86
2.61
2.56
2.74
3.02
3.2
3.14
2.73
2.0
1.08
0.16
-0.62
-1.15
-1.47
-1.68
-1.87
-2.06
-2.14
-1.89
-1.18
-0.03
1.33
2.52
3.21
3.22
2.57
1.38
-0.2
-2.08
-4.19
-6.38
-8.41
-9.95
-10.76
-10.74
-10.07
-9.0
-7.87
-6.85
-6.01
-5.29
-4.61
-3.91
-3.23
-2.68
-2.38
-2.43
-2.89
-3.75
-4.95
-6.36
-7.79
-9.05
-9.96
-10.45
-10.59
-10.45
-10.07
-9.38
-8.16
-6.17
-3.37
0.09
3.82
7.41
10.53
13.09
15.13
16.73
17.91
18.63
18.91
18.85
18.65
18.48
18.34
18.03
17.23
15.65
13.25
10.21
6.9
3.71
0.89
-1.49
-3.47
-5.12
-6.53
-7.69
-8.6
-9.23
-9.65
-9.94
-10.28
-10.85
-11.8
-13.15
-14.81
-16.54
-18.1
-19.21
-19.68
-19.35
-18.13
-16.0
-13.04
-9.51
-5.79
-2.3
0.59
2.73
4.16
5.04
5.58
5.9
6.07
6.05
5.83
5.42
4.85
4.14
3.29
2.27
1.08
-0.21
-1.49
-2.6
-3.48
-4.11
-4.57
-4.91
-5.18
-5.36
-5.44
-5.52
-5.77
-6.38
-7.44
-8.93
-10.66
-12.37
-13.84
-14.9
-15.45
-15.37
-14.53
-12.86
-10.39
-7.35
-4.14
-1.24
0.91
2.09
2.29
1.72
0.75
-0.3
-1.16
-1.66
-1.75
-1.41
-0.67
0.34
1.47
2.44
2.98
2.94
2.3
1.21
-0.1
-1.44
-2.71
-3.88
-5.0
-6.02
-6.95
-7.74
-8.47
-9.27
-10.29
-11.58
-12.98
-14.21
-14.87
-14.67
-13.47
-11.38
-8.69
-5.79
-3.07
-0.83
0.81
1.86
2.42
2.63
2.52
2.11
1.38
0.37
-0.8
-2.01
-3.11
-4.05
-4.8
-5.38
-5.81
-6.13
-6.39
-6.66
-7.01
-7.44
-7.85
-8.15
-8.32
-8.46
-8.78
-9.48
-10.62
-12.1
-13.69
-15.09
-16.07
-16.43
-16.03
-14.75
-12.59
-9.65
-6.19
-2.61
0.65
3.27
5.08
6.08
6.44
6.36
6.08
5.78
5.57
5.43
5.27
4.97
4.48
3.83
3.17
2.66
2.37
2.23
2.07
1.69
1.0
-0.02
-1.27
-2.66
-4.14
-5.75
-7.52
-9.44
-11.38
-13.17
-14.55
-15.34
-15.47
-14.88
-13.6
-11.65
-9.07
-5.96
-2.55
0.84
3.85
6.22
7.89
8.94
9.61
10.12
10.58
10.99
11.26
11.33
11.17
10.86
10.47
10.05
9.65
9.24
8.81
8.33
7.75
6.98
5.9
4.41
2.47
0.16
-2.3
-4.62
-6.52
-7.9
-8.87
-9.69
-10.69
-12.1
-13.98
-16.2
-18.47
-20.43
-21.71
-21.92
-20.82
-18.3
-14.51
-9.86
-4.9
-0.23
3.76
6.9
9.3
11.14
12.56
13.59
14.15
14.17
13.73
13.04
12.39
11.99
11.9
12.0
12.06
11.94
11.67
11.4
11.33
11.49
11.75
11.84
11.53
10.73
9.55
8.23
6.95
5.73
4.48
3.01
1.23
-0.83
-2.94
-4.84
-6.34
-7.36
-8.03
-8.59
-9.34
-10.53
-12.28
-14.51
-16.98
-19.27
-20.9
-21.42
-20.55
-18.23
-14.61
-10.09
-5.13
-0.22
4.26
8.11
11.24
13.69
15.54
16.84
17.59
17.77
17.41
16.61
15.55
14.5
13.7
13.32
13.38
13.75
14.23
14.58
14.64
14.32
13.6
12.54
11.22
9.71
8.14
6.66
5.43
4.52
3.91
3.44
2.88
2.06
0.94
-0.4
-1.78
-3.05
-4.13
-5.06
-5.94
-6.84
-7.85
-9.05
-10.5
-12.29
-14.34
-16.48
-18.33
-19.43
-19.34
-17.85
-14.97
-11.03
-6.51
-1.94
2.24
5.77
8.54
10.53
11.78
12.29
12.17
11.55
10.69
9.86
9.27
9.01
8.97
9.04
9.14
9.28
9.61
10.22
11.07
11.98
12.69
12.99
12.85
12.32
11.5
10.4
9.03
7.38
5.54
3.69
2.02
0.67
-0.38
-1.22
-1.96
-2.62
-3.18
-3.69
-4.27
-5.11
-6.41
-8.25
-10.51
-12.89
-14.98
-16.36
-16.66
-15.65
-13.33
-9.89
-5.74
-1.4
2.63
6.02
8.65
10.57
11.92
12.78
13.19
13.16
12.79
12.26
11.78
11.49
11.39
11.33
11.09
10.52
9.61
8.47
7.21
5.91
4.61
3.33
2.11
1.03
0.08
-0.82
-1.88
-3.3
-5.14
-7.26
-9.35
-11.11
-12.38
-13.25
-13.93
-14.68
-15.6
-16.66
-17.77
-18.81
-19.76
-20.58
-21.11
-21.07
-20.1
-17.93
-14.56
-10.27
-5.53
-0.82
3.56
7.5
11.03
14.17
16.86
19.01
20.55
21.54
22.11
22.44
22.6
22.6
22.31
21.64
20.56
19.13
17.54
15.95
14.56
13.49
12.82
12.58
12.68
12.93
13.07
12.77
11.81
10.12
7.79
5.05
2.13
-0.8
-3.69
-6.61
-9.66
-12.9
-16.33
-19.9
-23.44
-26.72
-29.48
-31.46
-32.5
-32.59
-31.84
-30.46
-28.67
-26.67
-24.62
-22.68
-21.05
-19.83
-19.15
-18.96
-19.11
-19.32
-19.24
-18.59
-17.23
-15.19
-12.67
-10.04
-7.66
-5.8
-4.55
-3.8
-3.37
-3.07
-2.81
-2.6
-2.54
-2.66
-2.98
-3.44
-3.98
-4.55
-5.15
-5.81
-6.54
-7.36
-8.2
-8.99
-9.66
-10.12
-10.31
-10.14
-9.52
-8.34
-6.48
-3.89
-0.63
3.11
7.01
10.71
13.88
16.36
18.14
19.29
19.95
20.19
20.09
19.7
19.12
18.44
17.77
17.12
16.42
15.62
14.74
13.87
13.19
12.85
12.87
13.07
13.15
12.74
11.55
9.43
6.41
2.75
-1.13
-4.77
-7.75
-9.84
-11.13
-11.91
-12.6
-13.56
-14.85
-16.23
-17.25
-17.47
-16.55
-14.49
-11.47
-7.87
-4.12
-0.58
2.46
4.9
6.74
8.05
8.9
9.38
9.55
9.44
9.17
8.84
8.58
8.52
8.77
9.43
10.54
12.06
13.85
15.64
17.07
17.81
17.68
16.67
14.91
12.6
9.96
7.18
4.5
2.12
0.21
-1.17
-2.15
-3.08
-4.43
-6.78
-10.58
-16.06
-23.0
-30.61
-37.65
-42.64
-44.38
-42.33
-36.85
-29.05
-20.37
-12.08
-4.94
0.8
5.26
8.68
11.21
12.97
14.13
14.9
15.6
16.45
17.52
18.69
19.72
20.38
20.58
20.4
20.05
19.81
19.82
20.09
20.45
20.65
20.45
19.69
18.33
16.42
14.1
11.57
9.06
6.76
4.75
2.95
1.06
-1.19
-3.98
-7.16
-10.28
-12.7
-13.84
-13.43
-11.56
-8.6
-5.11
-1.52
1.86
4.94
7.73
10.18
12.2
13.6
14.19
13.91
12.85
11.32
9.63
8.1
6.89
6.06
5.54
5.25
5.11
5.07
5.05
4.97
4.69
4.1
3.18
1.98
0.62
-0.76
-2.09
-3.39
-4.77
-6.32
-8.06
-9.88
-11.64
-13.19
-14.44
-15.36
-15.94
-16.06
-15.5
-13.96
-11.26
-7.45
-2.87
1.97
6.55
10.53
13.81
16.43
18.45
19.83
20.46
20.24
19.22
17.65
15.92
14.45
13.52
13.15
13.17
13.29
13.21
12.72
11.79
10.5
8.97
7.28
5.44
3.43
1.27
-0.96
-3.12
-5.11
-6.88
-8.51
-10.14
-11.88
-13.76
-15.7
-17.52
-18.97
-19.81
-19.81
-18.8
-16.76
-13.78
-10.12
-6.11
-2.14
1.51
4.59
6.99
8.66
9.61
9.86
9.48
8.62
7.46
6.22
5.07
4.13
3.38
2.82
2.48
2.41
2.69
3.27
3.94
4.34
4.1
2.99
1.07
-1.35
-3.89
-6.22
-8.19
-9.89
-11.49
-13.15
-14.93
-16.81
-18.71
-20.6
-22.4
-23.94
-24.94
-25.01
-23.84
-21.32
-17.68
-13.42
-9.17
-5.5
-2.73
-0.92
0.03
0.34
0.19
-0.26
-0.86
-1.46
-1.87
-1.94
-1.62
-0.98
-0.19
0.47
0.87
0.95
0.8
0.57
0.29
-0.13
-0.94
-2.36
-4.5
-7.23
-10.23
-13.1
-15.55
-17.48
-18.96
-20.2
-21.39
-22.7
-24.17
-25.71
-27.05
-27.77
-27.35
-25.38
-21.68
-16.47
-10.4
-4.32
0.88
4.53
6.32
6.21
4.41
1.23
-2.97
-7.75
-12.54
-16.7
-19.63
-20.85
-20.21
-17.86
-14.23
-9.83
-5.19
-0.75
3.13
6.14
8.02
8.64
8.05
6.47
4.3
1.94
-0.3
-2.34
-4.22
-6.08
-8.0
-10.02
-11.98
-13.65
-14.63
-14.53
-12.96
-9.78
-5.13
0.45
6.2
11.33
15.28
17.86
19.24
19.79
19.91
19.82
19.63
19.3
18.86
18.35
17.91
17.57
17.32
17.07
16.71
16.23
15.71
15.21
14.73
14.18
13.34
12.06
10.34
8.34
6.33
4.54
3.06
1.86
0.76
-0.42
-1.79
-3.4
-5.21
-7.14
-9.01
-10.57
-11.52
-11.56
-10.55
-8.54
-5.79
-2.67
0.47
3.37
5.95
8.19
10.06
11.49
12.37
12.65
12.33
11.6
10.67
9.83
9.26
9.03
9.06
9.22
9.35
9.35
9.24
9.12
9.06
9.07
9.0
8.65
7.81
6.41
4.57
2.54
0.57
-1.17
-2.65
-3.95
-5.22
-6.57
-8.05
-9.64
-11.31
-12.98
-14.5
-15.62
-16.0
-15.31
-13.4
-10.4
-6.72
-2.98
0.23
2.48
3.65
3.89
3.53
2.94
2.37
1.94
1.58
1.14
0.52
-0.27
-1.07
-1.66
-1.88
-1.68
-1.21
-0.68
-0.31
-0.23
-0.45
-0.92
-1.57
-2.33
-3.13
-3.95
-4.75
-5.53
-6.37
-7.32
-8.41
-9.55
-10.57
-11.23
-11.4
-11.07
-10.43
-9.8
-9.43
-9.53
-10.06
-10.87
-11.64
-12.0
-11.63
-10.26
-7.78
-4.21
0.23
5.17
10.1
14.55
18.11
20.55
21.85
22.15
21.68
20.7
19.42
18.01
16.61
15.4
14.56
14.26
14.51
15.17
15.96
16.57
16.73
16.34
15.41
14.07
12.45
10.72
8.99
7.42
6.16
5.31
4.85
4.64
4.43
3.98
3.11
1.87
0.38
-1.16
-2.58
-3.83
-4.97
-6.03
-7.06
-8.06
-8.98
-9.8
-10.48
-10.92
-10.92
-10.2
-8.45
-5.54
-1.53
3.25
8.29
13.06
17.04
19.78
20.89
20.11
17.37
12.91
7.27
1.13
-4.94
-10.81
-16.82
-23.75
-32.45
-43.58
-57.27
-72.98
-89.42
-104.73
-116.73
-123.56
-124.15
-118.73
-108.79
-96.56
-84.07
-72.31
-60.8
-47.95
-31.95
-11.78
12.18
38.04
63.03
84.23
99.43
107.48
108.47
103.47
94.18
82.51
70.14
58.24
47.18
36.46
24.86
10.99
-6.0
-25.56
-45.44
-62.12
-72.24
-74.05
-68.38
-58.27
-47.36
-37.96
-29.9
-21.0
-8.71
7.96
27.69
47.48
64.52
77.67
87.81
96.87
106.08
114.94
121.4
123.26
119.64
111.71
102.09
93.4
86.83
81.56
75.39
65.99
52.21
34.55
14.83
-4.69
-22.18
-36.73
-48.32
-57.51
-65.11
-71.77
-77.82
-83.13
-87.12
-88.98
-87.93
-83.6
-76.02
-65.51
-52.3
-36.28
-17.05
5.74
31.86
60.19
88.69
114.86
136.47
152.14
161.61
165.58
165.21
161.47
154.81
145.16
132.25
116.16
97.51
77.5
57.52
38.7
21.69
6.66
-6.35
-17.15
-25.21
-29.94
-31.07
-28.93
-24.56
-19.36
-14.64
-11.16
-9.04
-7.98
-7.58
-7.67
-8.4
-10.1
-12.99
-17.0
-21.77
-26.72
-31.31
-35.11
-37.93
-39.79
-40.87
-41.41
-41.7
-41.99
-42.45
-43.05
-43.62
-43.78
-43.14
-41.39
-38.44
-34.53
-30.17
-26.02
-22.68
-20.58
-19.83
-20.31
-21.71
-23.68
-25.9
-28.1
-30.05
-31.58
-32.57
-32.97
-32.84
-32.28
-31.43
-30.42
-29.32
-28.13
-26.84
-25.43
-23.96
-22.56
-21.31
-20.29
-19.45
-18.63
-17.7
-16.56
-15.26
-13.92
-12.73
-11.81
-11.21
-10.93
-10.94
-11.12
-11.33
-11.32
-10.78
-9.42
-7.08
-3.82
0.16
4.45
8.63
12.26
15.01
16.65
17.14
16.58
15.14
12.99
10.33
7.29
4.07
0.9
-1.98
-4.35
-6.1
-7.25
-7.92
-8.29
-8.55
-8.93
-9.63
-10.88
-12.85
-15.58
-18.97
-22.71
-26.36
-29.43
-31.5
-32.4
-32.23
-31.36
-30.34
-29.65
-29.56
-30.02
-30.68
-31.03
-30.52
-28.75
-25.45
-20.64
-14.48
-7.38
0.13
7.44
14.01
19.39
23.38
26.01
27.48
28.06
27.97
27.45
26.69
25.88
25.18
24.7
24.43
24.28
24.17
24.02
23.84
23.62
23.32
22.84
22.06
20.93
19.51
17.98
16.55
15.32
14.27
13.27
12.21
11.0
9.72
8.48
7.47
6.87
6.83
7.41
8.62
10.35
12.38
14.38
16.05
17.15
17.54
17.27
16.55
15.72
15.24
15.62
17.28
20.38
24.79
30.03
35.46
40.43
44.43
47.14
48.32
47.82
45.51
41.48
36.1
30.07
24.22
19.22
15.34
12.31
9.51
6.27
2.16
-2.78
-8.12
-13.22
-17.52
-20.69
-22.68
-23.7
-24.05
-24.06
-24.03
-24.27
-25.05
-26.58
-28.97
-32.17
-35.96
-40.06
-44.17
-47.99
-51.35
-54.09
-56.11
-57.29
-57.57
-56.93
-55.42
-53.23
-50.63
-47.91
-45.39
-43.33
-41.92
-41.2
-41.08
-41.34
-41.69
-41.85
-41.57
-40.74
-39.31
-37.24
-34.48
-30.94
-26.51
-21.24
-15.31
-9.08
-2.97
2.62
7.42
11.27
14.12
15.99
16.92
16.95
16.12
14.4
11.79
8.39
4.48
0.6
-2.62
-4.62
-5.19
-4.57
-3.38
-2.31
-1.89
-2.32
-3.47
-5.05
-6.77
-8.43
-9.97
-11.42
-12.91
-14.59
-16.57
-18.87
-21.33
-23.58
-25.06
-25.22
-23.69
-20.42
-15.79
-10.49
-5.28
-0.78
2.69
5.16
6.9
8.16
9.04
9.43
9.1
7.91
5.93
3.48
1.02
-1.0
-2.3
-2.84
-2.77
-2.33
-1.79
-1.37
-1.19
-1.27
-1.54
-1.91
-2.27
-2.58
-2.88
-3.28
-3.89
-4.84
-6.13
-7.63
-9.05
-10.01
-10.08
-8.89
-6.29
-2.38
2.46
7.66
12.57
16.63
19.47
20.97
21.24
20.53
19.17
17.45
15.6
13.75
11.98
10.38
9.03
8.02
7.42
7.19
7.28
7.55
7.84
8.01
7.95
7.59
6.9
5.9
4.64
3.15
1.49
-0.27
-2.06
-3.79
-5.37
-6.73
-7.83
-8.55
-8.74
-8.18
-6.63
-4.01
-0.46
3.6
7.63
11.08
13.61
15.09
15.65
15.46
14.67
13.38
11.63
9.51
7.21
5.01
3.26
2.21
1.93
2.29
2.99
3.68
4.12
4.25
4.2
4.13
4.15
4.16
3.98
3.46
2.55
1.33
-0.03
-1.46
-3.02
-4.83
-6.96
-9.28
-11.41
-12.85
-13.09
-11.81
-8.97
-4.82
0.17
5.37
10.15
13.95
16.38
17.26
16.7
15.03
12.79
10.52
8.63
7.25
6.27
5.47
4.7
4.02
3.65
3.79
4.43
5.29
5.91
5.82
4.83
3.09
0.97
-1.05
-2.61
-3.58
-4.07
-4.36
-4.75
-5.52
-6.76
-8.48
-10.48
-12.5
-14.17
-15.18
-15.19
-14.03
-11.65
-8.22
-4.09
0.31
4.49
8.07
10.76
12.41
13.02
12.68
11.61
10.09
8.42
6.84
5.49
4.45
3.77
3.46
3.54
3.95
4.54
5.1
5.41
5.34
4.89
4.16
3.29
2.37
1.41
0.37
-0.8
-2.1
-3.5
-5.0
-6.61
-8.38
-10.32
-12.23
-13.69
-14.17
-13.17
-10.47
-6.3
-1.29
3.71
7.91
10.85
12.47
12.97
12.68
11.88
10.75
9.43
8.07
6.86
5.97
5.48
5.31
5.3
5.28
5.13
4.85
4.52
4.2
3.89
3.49
2.9
2.1
1.12
0.08
-0.9
-1.76
-2.53
-3.36
-4.4
-5.77
-7.43
-9.24
-10.93
-12.15
-12.49
-11.61
-9.3
-5.62
-0.97
4.0
8.5
11.91
13.95
14.73
14.63
14.1
13.43
12.69
11.84
10.76
9.43
7.97
6.53
5.28
4.33
3.75
3.52
3.63
4.0
4.5
4.96
5.21
5.1
4.62
3.82
2.85
1.89
1.09
0.49
0.05
-0.4
-1.08
-2.24
-4.0
-6.24
-8.6
-10.47
-11.1
-9.91
-6.64
-1.53
4.68
10.96
16.28
19.95
21.7
21.77
20.62
18.8
16.64
14.28
11.63
8.34
3.86
-2.41
-10.91
-21.53
-33.33
-44.6
-53.21
-57.32
-56.06
-49.82
-40.08
-28.86
-18.06
-8.95
-2.06
2.63
5.48
6.89
7.22
6.71
5.55
3.89
1.93
-0.11
-1.97
-3.53
-4.82
-5.96
-7.14
-8.43
-9.82
-11.31
-13.12
-15.74
-19.86
-26.1
-34.5
-44.46
-54.75
-63.87
-70.59
-74.27
-74.98
-73.26
-69.85
-65.38
-60.18
-54.29
-47.57
-39.85
-31.16
-21.68
-11.82
-1.95
7.74
17.33
27.17
37.75
49.37
61.97
74.95
87.29
97.87
105.96
111.45
114.99
117.73
120.78
124.81
129.72
134.68
138.47
139.9
138.15
133.0
124.76
114.17
102.18
89.89
78.41
68.85
62.06
58.52
58.16
60.43
64.41
69.17
74.1
78.99
83.96
89.16
94.35
98.78
101.11
99.76
93.34
81.05
62.99
40.19
14.45
-12.01
-37.02
-58.88
-76.6
-89.98
-99.41
-105.6
-109.32
-111.2
-111.68
-111.05
-109.58
-107.56
-105.3
-103.06
-100.95
-98.87
-96.57
-93.72
-90.12
-85.8
-80.99
-76.04
-71.27
-66.82
-62.7
-58.89
-55.4
-52.34
-49.85
-48.02
-46.8
-45.99
-45.41
-44.95
-44.72
-44.97
-46.01
-48.01
-50.85
-54.07
-56.9
-58.41
-57.75
-54.34
-48.08
-39.39
-29.05
-17.98
-6.94
3.52
13.16
21.83
29.41
35.72
40.56
43.79
45.36
45.39
44.16
42.04
39.47
36.87
34.58
32.76
31.32
29.96
28.27
25.86
22.53
18.29
13.32
7.86
2.16
-3.57
-9.24
-14.82
-20.29
-25.62
-30.61
-34.84
-37.75
-38.78
-37.51
-33.85
-27.98
-20.27
-11.12
-0.93
9.81
20.34
29.64
36.59
40.37
40.76
38.26
33.85
28.62
23.4
18.68
14.63
11.28
8.59
6.46
4.63
2.65
0.05
-3.51
-8.12
-13.56
-19.39
-25.11
-30.31
-34.77
-38.5
-41.67
-44.55
-47.29
-49.79
-51.59
-52.0
-50.29
-46.02
-39.16
-30.2
-19.96
-9.47
0.3
8.58
14.89
19.16
21.54
22.43
22.19
21.19
19.65
17.81
15.92
14.3
13.25
12.86
12.96
13.17
13.12
12.63
11.87
11.21
11.01
11.39
12.13
12.79
12.95
12.41
11.25
9.76
8.22
6.84
5.77
5.2
5.41
6.74
9.41
13.37
18.28
23.52
28.45
32.5
35.31
36.71
36.75
35.58
33.5
30.88
28.11
25.51
23.24
21.32
19.62
17.95
16.09
13.87
11.21
8.17
5.0
2.03
-0.44
-2.27
-3.57
-4.5
-5.33
-6.22
-7.33
-8.85
-11.01
-14.0
-17.84
-22.19
-26.37
-29.56
-31.05
-30.47
-27.85
-23.56
-18.21
-12.51
-7.18
-2.9
-0.21
0.6
-0.4
-2.83
-6.1
-9.54
-12.58
-14.82
-15.98
-16.0
-14.91
-12.85
-10.08
-6.87
-3.5
-0.17
2.95
5.73
7.98
9.53
10.24
10.13
9.45
8.65
8.21
8.44
9.24
10.17
10.6
10.01
8.33
5.94
3.6
2.17
2.27
4.11
7.51
12.04
17.13
22.28
27.13
31.39
34.83
37.23
38.37
38.12
36.49
33.7
30.1
26.13
22.24
18.79
15.97
13.75
11.87
9.88
7.29
3.75
-0.85
-6.39
-12.6
-19.26
-26.34
-33.9
-41.93
-50.17
-58.11
-65.14
-70.85
-75.17
-78.5
-81.42
-84.43
-87.68
-90.76
-92.86
-93.0
-90.34
-84.55
-75.87
-65.07
-53.22
-41.41
-30.45
-20.77
-12.36
-4.77
2.68
10.8
20.19
31.06
43.07
55.4
66.96
76.62
83.57
87.36
87.99
85.82
81.46
75.7
69.29
62.81
56.48
50.09
43.11
34.89
25.12
14.12
3.04
-6.31
-11.93
-12.39
-7.29
2.36
14.45
26.38
35.85
41.43
42.8
40.55
35.74
29.39
22.32
15.09
8.1
1.76
-3.5
-7.18
-8.88
-8.29
-5.28
0.04
7.42
16.45
26.72
37.75
49.11
60.3
70.76
79.85
86.92
91.47
93.25
92.35
89.17
84.42
79.01
73.92
70.02
67.91
67.67
68.86
70.64
71.92
71.77
69.7
65.76
60.6
55.16
50.36
46.68
43.99
41.54
38.28
33.37
26.81
19.68
14.04
12.3
16.54
27.88
46.2
70.2
97.64
125.57
150.72
169.91
180.64
181.62
173.09
156.58
134.36
108.68
81.27
53.33
25.85
-0.06
-23.2
-42.59
-57.99
-70.08
-80.23
-89.98
-100.47
-112.11
-124.68
-137.65
-150.42
-162.45
-173.23
-182.12
-188.44
-191.61
-191.48
-188.38
-183.16
-176.89
-170.61
-165.03
-160.53
-157.16
-154.77
-153.12
-152.07
-151.65
-152.1
-153.77
-156.69
-160.26
-163.04
-162.88
-157.59
-145.68
-127.12
-103.31
-76.73
-50.06
-25.46
-4.17
13.46
27.63
38.8
47.53
54.45
60.34
65.97
71.93
78.44
85.25
91.71
97.0
100.29
100.95
98.66
93.39
85.44
75.26
63.38
50.28
36.48
22.66
9.64
-1.74
-10.88
-17.79
-23.24
-28.45
-34.49
-41.7
-49.45
-56.4
-61.25
-63.39
-63.23
-61.89
-60.54
-59.8
-59.42
-58.54
-56.22
-52.06
-46.44
-40.29
-34.66
-30.15
-26.63
-23.17
-18.28
-10.08
3.23
22.84
49.08
81.0
116.8
154.5
192.75
231.39
271.25
313.24
357.41
402.18
444.49
480.57
507.11
522.08
525.12
517.28
500.48
476.93
448.78
417.85
385.71
353.63
322.6
293.32
266.05
240.55
216.24
192.4
168.53
144.67
121.41
99.48
79.51
61.62
45.4
30.11
15.16
0.34
-14.02
-27.27
-38.84
-48.61
-57.05
-65.09
-73.68
-83.39
-94.12
-105.2
-115.77
-125.35
-134.17
-143.2
-153.83
-167.22
-183.82
-203.16
-224.08
-245.21
-265.55
-284.79
-303.39
-322.31
-343.09
-367.34
-396.21
-429.4
-464.09
-494.59
-513.34
-513.34
-491.01
-448.32
-392.6
-334.23
-283.0
-245.0
-221.4
-209.21
-203.57
-199.61
-193.53
-182.49
-164.2
-136.97
-100.32
-55.84
-7.21
40.56
82.66
116.02
140.08
156.48
167.91
176.95
185.0
192.33
198.52
203.15
206.28
208.39
210.13
211.81
213.23
213.84
213.27
211.76
210.43
210.85
214.14
220.14
226.93
231.38
230.26
221.54
205.15
182.78
156.96
129.79
102.19
73.85
43.86
11.78
-21.63
-53.99
-81.89
-101.87
-111.59
-110.68
-100.91
-85.5
-68.0
-51.31
-37.2
-26.65
-20.47
-19.87
-26.27
-40.68
-62.86
-91.0
-122.15
-153.28
-182.42
-209.22
-234.69
-260.38
-287.13
-314.33
-339.83
-360.61
-374.02
-378.71
-375.36
-366.33
-355.28
-346.09
-342.32
-347.02
-362.39
-389.14
-425.67
-467.66
-508.65
-541.75
-561.71
-566.68
-558.42
-541.01
-518.8
-494.68
-469.49
-442.67
-413.5
-381.97
-348.94
-315.64
-282.9
-250.93
-219.63
-189.16
-160.4
-134.88
-114.24
-99.34
-89.65
-83.14
-77.12
-69.3
-58.57
-45.33
-30.86
-16.63
-3.47
8.49
19.55
30.03
39.99
49.44
58.5
67.58
77.27
88.05
100.01
112.67
125.18
136.73
147.0
156.44
166.14
177.4
191.12
207.36
225.4
244.01
262.11
279.37
296.36
314.46
335.51
361.46
393.81
432.94
477.37
523.27
564.7
594.9
608.23
602.03
577.58
539.44
493.7
445.87
399.53
356.19
316.11
279.59
247.56
221.3
201.64
188.15
178.98
171.51
163.27
152.76
139.76
124.7
107.88
88.75
65.67
36.38
-1.09
-47.54
-101.99
-161.48
-221.4
-276.37
-321.28
-352.5
-368.81
-371.65
-364.61
-352.18
-338.55
-326.67
-318.03
-313.0
-311.4
-312.88
-316.96
-322.85
-329.3
-334.65
-337.34
-336.33
-331.44
-323.3
-312.96
-301.41
-289.16
-276.12
-261.78
-245.57
-227.22
-206.97
-185.51
-163.76
-142.5
-122.12
-102.55
-83.36
-64.07
-44.44
-24.57
-5.0
13.53
30.37
45.19
58.07
69.47
79.98
90.06
99.84
109.11
117.45
124.48
130.08
134.53
138.47
142.81
148.65
157.09
168.97
184.5
202.85
222.18
240.01
254.0
262.82
266.54
266.52
264.68
262.65
261.17
260.07
258.68
256.4
253.04
248.81
244.05
238.96
233.42
227.02
219.14
209.14
196.45
180.83
162.54
142.54
122.57
104.84
91.63
84.61
84.4
90.3
100.51
112.45
123.39
130.93
133.44
130.31
122.01
110.05
96.52
83.62
73.09
65.78
61.56
59.6
58.76
58.04
56.86
54.97
52.44
49.4
45.96
42.19
38.12
33.77
29.11
24.02
18.32
11.82
4.32
-4.28
-13.95
-24.52
-35.53
-46.21
-55.39
-61.71
-63.9
-61.2
-53.66
-42.21
-28.43
-14.15
-1.08
9.46
16.63
20.19
20.44
18.27
15.06
12.3
11.24
12.43
15.52
19.52
23.19
25.55
26.11
24.91
22.25
18.51
13.99
8.95
3.66
-1.59
-6.6
-11.31
-15.85
-20.34
-24.79
-29.0
-32.71
-35.74
-38.1
-39.84
-40.83
-40.38
-37.37
-30.51
-18.81
-1.91
19.94
45.88
74.15
101.68
123.87
135.2
130.99
109.46
73.08
28.2
-17.12
-55.89
-84.51
-103.09
-114.21
-120.9
-125.1
-127.31
-127.22
-124.64
-119.86
-113.53
-106.15
-97.76
-88.07
-76.82
-64.19
-51.0
-38.69
-28.9
-23.11
-22.07
-25.55
-32.32
-40.34
-47.27
-50.95
-49.9
-43.59
-32.41
-17.53
-0.51
17.07
33.97
49.31
62.6
73.53
81.89
87.54
90.45
90.77
88.85
85.23
80.42
74.93
69.11
63.27
57.64
52.36
47.49
42.95
38.63
34.39
30.12
25.82
21.48
17.08
12.51
7.58
2.08
-4.15
-11.19
-19.04
-27.61
-36.68
-45.78
-54.08
-60.47
-63.74
-63.03
-58.21
-50.09
-40.24
-30.48
-22.29
-16.32
-12.21
-8.74
-4.25
2.87
13.67
28.35
46.09
65.11
83.05
97.56
106.87
110.36
108.69
103.46
96.69
90.01
84.24
79.25
74.18
67.92
59.6
49.05
37.08
25.35
16.13
11.55
12.88
20.01
31.27
44.03
55.63
64.31
69.84
73.39
76.89
81.97
89.28
98.12
106.74
113.04
115.31
112.72
105.56
94.97
82.61
70.26
59.41
50.99
45.1
40.87
36.55
29.89
18.91
2.7
-18.07
-41.24
-63.86
-83.14
-97.32
-106.04
-110.1
-110.99
-110.24
-109.08
-108.23
-107.78
-107.21
-105.48
-101.36
-94.29
-85.06
-76.31
-72.04
-76.44
-92.06
-118.54
-152.23
-187.08
-216.42
-234.77
-239.13
-229.14
-206.47
-173.82
-134.13
-90.19
-44.74
-0.63
39.17
71.9
95.55
109.49
114.77
114.09
111.15
109.84
113.12
122.21
136.29
152.7
167.86
178.38
181.97
177.9
166.86
150.37
130.1
107.54
83.93
60.41
38.13
18.07
0.81
-13.77
-26.48
-38.68
-51.77
-66.69
-83.53
-101.35
-118.21
-131.6
-139.03
-138.74
-130.26
-114.57
-93.86
-70.97
-48.63
-28.96
-13.2
-1.82
5.28
8.49
8.35
5.42
0.39
-6.0
-12.95
-19.74
-25.73
-30.51
-33.77
-35.4
-35.33
-33.64
-30.51
-26.28
-21.41
-16.42
-11.91
-8.49
-6.69
-6.89
-9.19
-13.26
-18.44
-23.88
-28.82
-32.82
-35.94
-38.6
-41.4
-44.82
-48.9
-53.16
-56.74
-58.61
-58.01
-54.76
-49.44
-43.29
-37.83
-34.52
-34.24
-37.13
-42.49
-48.87
-54.48
-57.53
-56.76
-51.78
-43.09
-31.94
-19.84
-8.24
1.83
9.83
15.73
19.92
23.21
26.69
31.43
38.19
47.07
57.47
68.25
78.14
86.0
91.09
93.02
91.7
87.28
80.13
70.8
60.01
48.5
36.82
25.27
13.88
2.5
-9.09
-21.03
-33.39
-46.2
-59.42
-73.04
-86.99
-101.14
-115.28
-129.12
-142.24
-154.01
-163.37
-168.66
-167.71
-158.11
-137.92
-106.35
-64.4
-14.83
38.32
90.77
139.0
180.85
215.63
243.54
264.96
279.83
287.59
287.48
279.2
263.46
242.07
217.6
192.64
169.05
147.67
128.41
110.87
94.97
81.37
71.37
66.44
67.48
74.44
86.26
101.36
118.32
136.47
155.93
176.98
199.2
220.62
237.77
246.5
243.41
227.1
198.58
160.51
115.93
67.19
15.86
-36.43
-86.89
-131.37
-165.18
-184.89
-189.96
-183.21
-169.86
-155.68
-145.14
-140.54
-142.17
-149.14
-160.31
-174.6
-190.88
-207.57
-222.47
-232.89
-236.18
-230.29
-214.4
-189.06
-156.17
-118.56
-79.3
-40.92
-4.9
28.43
59.45
88.3
114.09
134.66
147.12
148.99
139.24
118.96
91.01
59.13
26.82
-3.47
-30.45
-53.78
-73.54
-89.95
-103.25
-113.8
-122.14
-129.03
-135.25
-141.45
-148.01
-155.06
-162.53
-170.26
-177.98
-185.21
-191.07
-194.17
-192.7
-184.94
-169.7
-146.99
-118.23
-86.1
-53.93
-24.91
-1.3
16.03
27.61
34.99
40.03
44.39
49.14
54.8
61.53
69.38
78.39
88.4
98.9
109.02
117.71
124.16
127.99
129.32
128.52
125.88
121.43
115.06
106.67
96.39
84.62
71.85
58.46
44.68
30.62
16.55
3.08
-8.79
-17.88
-23.11
-23.92
-20.38
-13.33
-4.12
5.69
14.64
21.66
26.21
28.31
28.3
26.72
24.13
21.0
17.71
14.58
11.87
9.78
8.34
7.43
6.73
5.95
4.89
3.58
2.22
1.07
0.3
-0.15
-0.58
-1.43
-3.19
-6.26
-10.88
-17.07
-24.59
-32.91
-41.27
-48.59
-53.7
-55.46
-53.13
-46.62
-36.63
-24.54
-12.01
-0.57
8.79
15.64
20.06
22.34
22.77
21.61
19.16
15.79
12.02
8.37
5.26
2.87
1.13
-0.21
-1.48
-2.87
-4.43
-5.99
-7.26
-8.03
-8.27
-8.17
-8.15
-8.64
-9.95
-12.2
-15.23
-18.65
-21.88
-24.14
-24.55
-22.25
-16.72
-8.01
3.11
15.22
26.64
35.86
42.01
44.93
45.04
42.91
38.99
33.45
26.31
17.76
8.35
-0.99
-9.22
-15.52
-19.53
-21.4
-21.64
-20.83
-19.47
-17.98
-16.74
-16.21
-16.82
-18.98
-22.8
-28.12
-34.5
-41.47
-48.65
-55.84
-62.86
-69.41
-74.83
-78.1
-78.13
-74.17
-66.18
-55.02
-42.16
-29.33
-17.89
-8.57
-1.41
4.02
8.15
11.24
13.23
13.98
13.43
11.78
9.47
7.1
5.12
3.79
3.02
2.52
1.93
1.03
-0.23
-1.7
-3.16
-4.43
-5.5
-6.53
-7.88
-9.86
-12.73
-16.49
-20.86
-25.23
-28.72
-30.29
-29.01
-24.33
-16.3
-5.64
6.47
18.67
29.85
39.39
47.11
53.17
57.79
61.11
63.12
63.7
62.73
60.15
56.03
50.61
44.26
37.51
30.85
24.66
19.08
14.03
9.29
4.64
-0.02
-4.56
-8.7
-12.12
-14.58
-16.17
-17.28
-18.64
-21.07
-25.11
-30.74
-37.16
-43.01
-46.72
-47.18
-44.15
-38.29
-30.87
-23.22
-16.29
-10.46
-5.72
-1.9
1.02
2.9
3.58
3.16
2.0
0.67
-0.33
-0.74
-0.67
-0.46
-0.49
-1.0
-2.01
-3.37
-4.86
-6.32
-7.73
-9.09
-10.41
-11.64
-12.65
-13.32
-13.59
-13.55
-13.45
-13.58
-14.07
-14.74
-14.94
-13.7
-9.93
-2.85
7.78
21.45
36.99
52.81
67.17
78.53
85.77
88.32
86.17
79.83
70.27
58.64
46.17
33.98
22.93
13.55
6.06
0.44
-3.57
-6.28
-8.06
-9.29
-10.3
-11.41
-12.88
-14.85
-17.32
-20.16
-23.14
-26.02
-28.68
-31.07
-33.39
-35.92
-39.04
-43.01
-47.84
-53.1
-57.89
-60.98
-61.2
-57.81
-50.87
-41.21
-30.25
-19.46
-10.02
-2.57
2.73
6.07
7.73
8.02
7.18
5.52
3.36
1.07
-1.02
-2.68
-3.77
-4.29
-4.28
-3.86
-3.08
-2.05
-0.86
0.29
1.13
1.41
0.96
-0.25
-2.07
-4.27
-6.66
-9.12
-11.75
-14.72
-18.34
-22.79
-28.07
-33.79
-39.09
-42.8
-43.69
-40.94
-34.45
-24.92
-13.68
-2.28
7.94
16.19
22.17
26.02
28.03
28.52
27.77
26.01
23.47
20.4
17.06
13.7
10.54
7.72
5.41
3.73
2.78
2.59
3.05
3.91
4.77
5.18
4.77
3.37
1.03
-1.96
-5.25
-8.56
-11.83
-15.19
-18.91
-23.24
-28.26
-33.76
-39.24
-43.86
-46.64
-46.68
-43.41
-36.86
-27.76
-17.32
-7.02
1.91
8.67
13.1
15.47
16.32
16.2
15.48
14.43
13.17
11.73
10.11
8.27
6.23
4.05
1.89
-0.04
-1.58
-2.68
-3.47
-4.27
-5.42
-7.19
-9.61
-12.55
-15.69
-18.7
-21.27
-23.16
-24.26
-24.7
-24.93
-25.68
-27.73
-31.55
-36.94
-42.92
-48.02
-50.84
-50.56
-47.16
-41.4
-34.35
-26.98
-19.85
-13.1
-6.56
-0.04
6.53
12.96
18.89
23.94
27.82
30.46
32.03
32.79
33.11
33.35
33.83
34.78
36.31
38.33
40.6
42.78
44.55
45.67
46.03
45.59
44.41
42.62
40.45
38.19
36.05
34.07
31.94
29.14
25.21
20.07
14.2
8.65
4.78
3.81
6.48
12.78
21.89
32.42
42.84
51.78
58.5
62.79
64.97
65.64
65.5
65.14
65.03
65.49
66.59
68.23
70.07
71.61
72.38
71.98
70.21
67.06
62.62
56.98
50.13
41.9
32.05
20.36
6.82
-8.27
-24.18
-39.98
-54.83
-68.34
-80.69
-92.5
-104.35
-116.33
-127.74
-137.22
-143.25
-144.71
-141.18
-133.07
-121.39
-107.42
-92.54
-78.06
-65.13
-54.49
-46.28
-39.8
-33.68
-26.28
-16.34
-3.43
11.79
27.85
42.91
55.41
64.42
69.76
71.8
71.14
68.19
63.0
55.36
45.02
32.06
17.14
1.42
-13.65
-26.83
-37.49
-45.83
-52.65
-58.9
-65.05
-70.8
-75.07
-76.46
-73.89
-67.11
-56.89
-44.59
-31.75
-19.62
-9.17
-1.24
3.38
4.12
1.15
-4.29
-9.99
-13.43
-12.79
-7.77
0.42
9.57
17.57
23.13
26.11
27.16
27.11
26.45
25.26
23.32
20.42
16.59
12.07
7.27
2.45
-2.32
-7.26
-12.66
-18.84
-25.97
-34.05
-42.85
-51.89
-60.45
-67.63
-72.48
-74.27
-72.66
-67.86
-60.49
-51.43
-41.67
-32.23
-24.05
-18.06
-14.89
-14.67
-16.85
-20.29
-23.55
-25.39
-25.22
-23.15
-19.85
-16.1
-12.51
-9.33
-6.53
-3.98
-1.57
0.67
2.64
4.29
5.67
6.97
8.46
10.4
12.87
15.67
18.26
19.9
19.92
18.05
14.71
11.0
8.39
8.16
10.91
16.27
23.01
29.61
34.8
38.04
39.52
39.94
40.01
40.15
40.32
40.25
39.66
38.5
37.07
35.88
35.45
36.17
38.1
41.08
44.57
47.66
49.03
47.17
40.94
30.41
17.46
5.79
-0.06
3.63
18.14
41.54
69.15
95.06
113.97
122.55
120.04
107.82
88.65
65.75
42.22
20.5
2.12
-12.56
-24.28
-34.58
-45.27
-57.73
-72.36
-87.99
-101.85
-110.02
-108.6
-95.34
-70.9
-39.14
-5.93
22.94
43.88
56.55
63.32
67.61
72.21
78.17
85.11
92.03
98.18
103.33
107.46
110.37
111.5
110.19
106.03
99.02
89.53
78.14
65.5
52.34
39.59
28.35
19.62
14.03
11.62
11.93
14.21
17.67
21.63
25.46
28.48
29.92
29.14
25.87
20.41
13.69
6.97
1.44
-2.16
-3.74
-3.85
-3.42
-3.39
-4.35
-6.28
-8.58
-10.33
-10.65
-9.15
-6.05
-2.2
1.35
3.56
3.76
1.58
-3.04
-10.08
-19.34
-30.36
-42.2
-53.47
-62.51
-67.86
-68.72
-65.19
-58.22
-49.32
-40.05
-31.57
-24.47
-18.83
-14.41
-10.91
-8.13
-6.0
-4.32
-2.54
0.44
6.28
16.92
34.08
58.71
90.41
127.11
165.06
199.41
225.17
238.53
237.88
224.3
201.05
172.4
142.32
113.3
86.07
59.97
33.6
5.26
-26.68
-63.45
-105.18
-150.13
-194.22
-231.72
-256.83
-265.85
-258.57
-238.36
-210.77
-181.4
-154.14
-130.58
-110.51
-93.11
-77.86
-64.82
-54.28
-46.25
-40.24
-35.43
-31.1
-26.92
-23.07
-20.02
-18.17
-17.5
-17.59
-17.83
-17.75
-17.31
-16.95
-17.36
-19.1
-22.36
-26.84
-31.89
-36.82
-41.13
-44.69
-47.67
-50.35
-52.8
-54.69
-55.24
-53.55
-48.93
-41.34
-31.43
-20.47
-9.94
-1.07
5.36
9.12
10.36
9.35
6.37
1.72
-4.14
-10.54
-16.57
-21.31
-24.07
-24.63
-23.28
-20.69
-17.71
-15.09
-13.32
-12.64
-13.03
-14.31
-16.2
-18.39
-20.59
-22.58
-24.3
-25.85
-27.43
-29.29
-31.53
-34.06
-36.45
-38.0
-37.83
-35.19
-29.73
-21.69
-11.97
-1.82
7.51
15.16
20.84
24.74
27.25
28.71
29.32
29.16
28.33
27.0
25.45
23.88
22.43
21.16
20.06
19.18
18.53
18.0
17.37
16.33
14.62
12.17
9.1
5.7
2.25
-1.02
-4.03
-6.76
-9.26
-11.7
-14.32
-17.38
-20.95
-24.67
-27.71
-28.91
-27.15
-21.84
-13.16
-2.11
9.91
21.45
31.52
39.65
45.9
50.61
54.21
57.04
59.36
61.34
63.08
64.58
65.68
66.14
65.65
64.05
61.42
58.0
54.12
49.87
44.99
38.89
30.84
20.31
7.23
-7.96
-24.42
-41.23
-57.58
-72.97
-87.19
-100.24
-112.23
-123.23
-133.08
-141.29
-146.99
-149.02
-146.14
-137.39
-122.49
-102.03
-77.54
-51.1
-24.94
-0.92
19.82
36.85
50.34
60.68
68.33
73.71
77.28
79.58
81.27
82.95
84.95
87.34
89.84
92.01
93.56
94.43
94.88
95.36
96.3
97.92
100.01
102.0
102.95
101.92
98.11
91.14
81.15
68.7
54.55
39.45
23.9
8.11
-7.82
-23.73
-39.14
-53.25
-64.92
-72.98
-76.41
-74.7
-67.96
-57.09
-43.6
-29.42
-16.44
-6.13
0.76
4.33
5.32
4.78
3.65
2.58
1.76
1.13
0.45
-0.5
-1.85
-3.6
-5.59
-7.5
-8.92
-9.45
-8.96
-7.73
-6.5
-6.23
-7.74
-11.37
-16.81
-23.29
-29.96
-36.18
-41.8
-47.02
-52.17
-57.49
-63.11
-69.01
-75.08
-80.95
-85.92
-88.9
-88.66
-84.26
-75.51
-63.16
-48.74
-34.02
-20.55
-9.14
0.07
7.44
13.4
18.28
22.13
24.92
26.6
27.27
27.17
26.6
25.85
25.19
24.79
24.78
25.18
25.89
26.7
27.31
27.49
27.11
26.23
25.09
23.99
23.17
22.71
22.4
21.8
20.36
17.51
12.95
6.77
-0.5
-7.83
-13.95
-17.57
-17.71
-13.98
-6.69
3.19
14.28
25.13
34.62
42.08
47.33
50.55
52.07
52.23
51.29
49.5
47.11
44.32
41.25
37.96
34.4
30.54
26.41
22.2
18.19
14.7
11.94
9.86
8.23
6.62
4.59
1.91
-1.39
-5.01
-8.53
-11.66
-14.43
-17.1
-20.16
-24.0
-28.69
-33.94
-39.02
-42.95
-44.64
-43.21
-38.24
-30.02
-19.65
-8.89
0.31
6.35
8.51
7.1
3.27
-1.5
-5.92
-9.22
-11.19
-11.99
-11.9
-11.16
-9.96
-8.46
-6.86
-5.35
-4.11
-3.2
-2.58
-2.18
-1.98
-2.03
-2.41
-3.2
-4.4
-5.9
-7.55
-9.25
-11.03
-13.08
-15.73
-19.41
-24.48
-31.07
-38.86
-47.08
-54.57
-60.07
-62.52
-61.45
-57.1
-50.31
-42.26
-34.04
-26.51
-20.2
-15.46
-12.62
-12.04
-14.0
-18.51
-25.11
-32.92
-40.85
-47.97
-53.78
-58.29
-62.09
-66.06
-71.12
-77.79
-85.71
-93.45
-98.56
-98.28
-90.55
-74.97
-53.25
-28.82
-5.86
11.91
22.18
24.37
19.25
8.48
-5.97
-22.09
-37.82
-51.17
-60.29
-63.86
-61.33
-53.19
-40.88
-26.38
-11.72
1.61
12.87
22.04
29.52
35.8
41.1
45.39
48.55
50.46
51.16
50.83
49.67
47.9
45.64
42.97
39.94
36.58
33.0
29.42
26.15
23.45
21.41
19.75
17.89
15.12
10.88
5.0
-2.29
-10.55
-19.41
-28.8
-38.88
-49.65
-60.65
-70.74
-78.28
-81.66
-79.83
-72.74
-61.38
-47.38
-32.58
-18.45
-5.91
4.71
13.45
20.49
25.96
29.88
32.2
32.91
32.09
29.99
27.06
23.86
20.9
18.53
16.82
15.57
14.43
13.04
11.13
8.62
5.55
2.06
-1.66
-5.48
-9.29
-13.09
-16.96
-21.07
-25.69
-30.99
-36.96
-43.23
-49.01
-53.14
-54.33
-51.58
-44.52
-33.7
-20.48
-6.67
5.99
16.29
23.8
28.77
31.87
33.8
35.09
35.98
36.55
36.86
37.1
37.52
38.38
39.84
41.78
43.95
46.04
47.82
49.17
50.03
50.34
49.95
48.74
46.62
43.64
40.0
35.93
31.63
27.19
22.56
17.64
12.41
7.04
1.97
-2.19
-4.72
-5.11
-3.18
0.82
6.21
12.15
17.79
22.57
26.21
28.75
30.39
31.28
31.49
30.95
29.61
27.53
24.93
22.2
19.75
17.89
16.69
16.05
15.71
15.4
14.87
13.93
12.42
10.29
7.56
4.38
0.92
-2.7
-6.47
-10.56
-15.25
-20.79
-27.25
-34.29
-41.17
-46.78
-50.02
-50.1
-46.85
-40.82
-33.14
-25.14
-18.02
-12.51
-8.89
-7.03
-6.65
-7.5
-9.45
-12.47
-16.59
-21.78
-27.89
-34.61
-41.55
-48.25
-54.27
-59.22
-62.83
-64.98
-65.74
-65.28
-63.74
-60.97
-56.44
-49.27
-38.59
-23.99
-5.75
15.05
36.86
58.05
77.28
93.75
107.24
118.03
126.78
134.32
141.44
148.63
156.05
163.44
170.35
176.29
180.86
183.81
184.94
184.1
181.3
176.71
170.77
164.07
157.18
150.51
144.2
138.16
132.16
125.9
119.12
111.68
103.58
95.03
86.43
78.16
70.44
63.12
55.71
47.53
38.07
27.15
15.04
2.26
-10.7
-23.52
-36.01
-47.97
-58.91
-68.12
-74.85
-78.71
-79.86
-79.05
-77.3
-75.51
-74.19
-73.41
-73.01
-72.86
-72.97
-73.48
-74.51
-76.01
-77.73
-79.4
-80.77
-81.74
-82.26
-82.23
-81.47
-79.74
-76.9
-73.08
-68.7
-64.39
-60.73
-58.05
-56.31
-55.14
-54.1
-52.86
-51.42
-50.05
-49.14
-49.08
-50.04
-51.97
-54.56
-57.31
-59.58
-60.6
-59.62
-56.14
-49.97
-41.45
-31.23
-20.06
-8.41
3.74
16.88
31.6
47.97
65.14
81.31
94.18
101.8
103.28
99.14
90.97
80.77
70.14
59.88
50.01
40.2
30.17
19.99
9.96
0.39
-8.59
-17.15
-25.5
-33.81
-42.05
-49.96
-57.22
-63.52
-68.77
-73.07
-76.72
-80.02
-83.17
-86.05
-88.17
-88.78
-87.04
-82.3
-74.18
-62.64
-47.9
-30.28
-10.16
11.9
35.12
58.45
80.64
100.51
117.26
130.54
140.46
147.38
151.68
153.6
153.31
150.99
146.99
141.76
135.88
129.83
124.01
118.59
113.61
109.01
104.56
99.93
94.55
87.77
78.89
67.44
53.4
37.21
19.79
2.24
-14.34
-29.01
-41.15
-50.34
-56.4
-59.42
-59.76
-58.16
-55.64
-53.34
-52.21
-52.79
-55.08
-58.64
-62.77
-66.75
-70.1
-72.55
-74.1
-74.83
-74.87
-74.29
-73.1
-71.26
-68.79
-65.72
-62.15
-58.24
-54.15
-50.1
-46.3
-42.92
-40.06
-37.72
-35.87
-34.46
-33.47
-32.95
-33.0
-33.75
-35.21
-37.25
-39.5
-41.39
-42.17
-41.16
-37.84
-32.15
-24.46
-15.53
-6.29
2.39
9.88
15.9
20.4
23.52
25.39
26.16
25.92
24.82
23.08
20.97
18.79
16.77
15.06
13.71
12.67
11.84
11.04
10.14
9.03
7.66
6.08
4.36
2.59
0.8
-1.06
-3.08
-5.36
-7.9
-10.66
-13.52
-16.33
-18.83
-20.7
-21.45
-20.62
-17.86
-13.16
-6.94
0.08
7.02
13.12
17.9
21.15
22.95
23.44
22.86
21.45
19.44
17.05
14.5
12.02
9.85
8.21
7.26
7.01
7.22
7.55
7.61
7.16
6.17
4.76
3.11
1.3
-0.66
-2.81
-5.13
-7.53
-9.92
-12.28
-14.71
-17.39
-20.33
-23.32
-25.82
-27.07
-26.4
-23.49
-18.47
-11.98
-4.92
1.83
7.55
11.9
14.74
16.11
16.14
15.05
13.19
10.97
8.84
7.11
5.91
5.22
4.86
4.71
4.66
4.65
4.6
4.42
3.95
3.14
1.95
0.4
-1.44
-3.55
-5.88
-8.38
-10.99
-13.67
-16.46
-19.5
-22.9
-26.61
-30.21
-32.96
-33.94
-32.43
-28.23
-21.85
-14.4
-7.22
-1.45
2.29
4.01
4.18
3.46
2.38
1.25
0.13
-1.07
-2.41
-3.84
-5.14
-5.8
-5.06
-1.92
4.59
15.11
29.55
46.93
65.4
82.68
96.65
105.97
110.49
111.31
110.49
110.4
113.08
119.7
130.22
143.43
157.29
169.47
177.93
181.29
179.09
171.67
160.02
145.44
129.42
113.34
98.28
84.84
72.96
61.93
50.69
38.22
24.0
8.36
-7.63
-22.59
-35.44
-45.82
-54.2
-61.54
-68.82
-76.53
-84.56
-92.42
-99.59
-105.86
-111.36
-116.35
-121.01
-125.21
-128.58
-130.8
-131.83
-132.05
-132.08
-132.49
-133.56
-135.05
-136.26
-136.25
-134.1
-129.22
-121.45
-111.12
-98.94
-85.77
-72.47
-59.75
-48.07
-37.71
-28.81
-21.36
-15.31
-10.49
-6.65
-3.51
-0.79
1.72
4.07
6.27
8.2
9.78
10.98
11.85
12.48
12.99
13.42
13.71
13.7
13.23
12.2
10.64
8.69
6.51
4.26
2.0
-0.29
-2.7
-5.29
-8.15
-11.27
-14.59
-17.8
-20.48
-22.04
-21.95
-19.86
-15.79
-10.16
-3.69
2.84
8.72
13.5
16.98
19.18
20.23
20.33
19.65
18.39
16.75
15.0
13.39
12.19
11.54
11.44
11.74
12.22
12.64
12.87
12.88
12.66
12.16
11.27
9.79
7.65
4.9
1.84
-1.17
-3.84
-6.09
-8.09
-10.12
-12.47
-15.3
-18.57
-22.06
-25.41
-28.1
-29.55
-29.2
-26.7
-22.08
-15.76
-8.47
-1.1
5.57
11.03
15.06
17.73
19.26
19.94
19.99
19.57
18.8
17.77
16.69
15.74
15.13
14.93
15.05
15.32
15.49
15.39
14.98
14.32
13.47
12.41
11.04
9.21
6.86
4.06
1.06
-1.82
-4.34
-6.47
-8.41
-10.53
-13.16
-16.39
-19.99
-23.44
-26.06
-27.2
-26.44
-23.68
-19.13
-13.27
-6.73
-0.17
5.82
10.84
14.68
17.3
18.82
19.39
19.17
18.38
17.22
15.93
14.74
13.83
13.31
13.16
13.34
13.71
14.16
14.54
14.66
14.34
13.43
11.91
9.9
7.64
5.38
3.34
1.58
0.06
-1.35
-2.8
-4.45
-6.45
-8.91
-11.89
-15.24
-18.63
-21.47
-23.05
-22.77
-20.31
-15.78
-9.72
-2.91
3.84
9.89
14.9
18.74
21.42
23.02
23.58
23.23
22.19
20.8
19.42
18.33
17.65
17.28
17.07
16.88
16.65
16.47
16.43
16.55
16.72
16.73
16.37
15.53
14.23
12.65
10.95
9.25
7.57
5.82
3.86
1.58
-1.13
-4.26
-7.73
-11.25
-14.38
-16.55
-17.24
-16.17
-13.43
-9.5
-5.06
-0.76
3.02
6.21
8.94
11.34
13.4
14.99
15.98
16.45
16.75
17.42
18.98
21.68
25.38
29.62
33.76
37.21
39.62
40.94
41.47
41.86
43.02
45.92
51.27
59.17
68.94
79.2
88.28
94.67
97.48
96.59
92.59
86.46
79.21
71.68
64.38
57.54
51.16
45.15
39.39
33.78
28.23
22.58
16.63
10.09
2.82
-5.15
-13.52
-21.8
-29.55
-36.52
-42.77
-48.57
-54.21
-59.82
-65.27
-70.17
-74.15
-77.0
-78.81
-79.93
-80.81
-81.77
-82.82
-83.74
-84.16
-83.84
-82.8
-81.35
-79.95
-78.99
-78.6
-78.63
-78.78
-78.79
-78.51
-77.91
-76.86
-75.03
-71.86
-66.77
-59.41
-49.88
-38.82
-27.19
-15.98
-5.93
2.66
9.89
16.11
21.69
26.9
31.86
36.63
41.25
45.88
50.65
55.66
60.79
65.74
70.07
73.36
75.41
76.33
76.5
76.46
76.57
76.9
77.17
76.93
75.86
73.96
71.55
68.97
66.32
63.26
59.18
53.63
46.75
39.32
32.49
27.28
24.04
22.33
21.14
19.36
16.21
11.46
5.39
-1.46
-8.49
-15.2
-21.21
-26.25
-30.1
-32.69
-34.06
-34.52
-34.5
-34.51
-34.88
-35.69
-36.75
-37.76
-38.52
-39.08
-39.75
-40.94
-42.91
-45.62
-48.67
-51.53
-53.73
-55.1
-55.85
-56.49
-57.62
-59.61
-62.32
-65.08
-66.82
-66.46
-63.31
-57.34
-49.24
-40.06
-30.92
-22.62
-15.58
-9.9
-5.57
-2.57
-0.99
-0.88
-2.13
-4.45
-7.35
-10.31
-12.87
-14.76
-15.88
-16.29
-16.08
-15.4
-14.38
-13.15
-11.92
-10.87
-10.2
-10.05
-10.43
-11.24
-12.35
-13.62
-15.0
-16.53
-18.36
-20.63
-23.38
-26.51
-29.64
-32.16
-33.31
-32.44
-29.19
-23.65
-16.4
-8.33
-0.43
6.49
11.83
15.36
17.09
17.25
16.24
14.55
12.64
10.88
9.46
8.36
7.45
6.61
5.75
4.85
3.94
3.03
2.12
1.2
0.32
-0.39
-0.84
-0.93
-0.7
-0.31
-0.03
-0.16
-0.99
-2.7
-5.34
-8.71
-12.37
-15.66
-17.82
-18.16
-16.22
-11.92
-5.62
1.95
9.86
17.2
23.23
27.55
30.08
31.01
30.64
29.29
27.2
24.5
21.37
18.05
14.89
12.33
10.71
10.19
10.59
11.41
11.96
11.56
9.77
6.51
2.12
-2.81
-7.65
-11.92
-15.42
-18.16
-20.36
-22.26
-24.2
-26.45
-29.22
-32.5
-35.95
-38.89
-40.41
-39.72
-36.43
-30.77
-23.49
-15.61
-8.08
-1.53
3.74
7.66
10.18
11.31
11.03
9.51
7.07
4.14
1.16
-1.55
-3.8
-5.5
-6.54
-6.81
-6.21
-4.86
-3.13
-1.61
-0.89
-1.33
-2.91
-5.21
-7.66
-9.73
-11.21
-12.18
-12.98
-13.96
-15.47
-17.67
-20.54
-23.81
-26.97
-29.31
-30.04
-28.55
-24.56
-18.29
-10.41
-1.89
6.19
12.97
17.9
20.89
22.22
22.38
21.87
21.06
20.08
18.91
17.51
15.92
14.33
13.01
12.22
12.05
12.38
12.9
13.2
12.9
11.76
9.72
6.9
3.57
0.02
-3.43
-6.57
-9.3
-11.69
-13.94
-16.38
-19.31
-22.87
-26.93
-30.97
-34.19
-35.69
-34.78
-31.21
-25.25
-17.59
-9.16
-0.81
6.78
13.19
18.23
21.85
24.12
25.18
25.27
24.72
23.9
23.07
22.38
21.84
21.37
20.89
20.39
19.9
19.49
19.16
18.9
18.62
18.27
17.79
17.1
16.06
14.48
12.23
9.29
5.82
2.18
-1.22
-4.12
-6.5
-8.62
-10.89
-13.7
-17.2
-21.15
-24.93
-27.69
-28.6
-27.16
-23.33
-17.58
-10.73
-3.66
2.94
8.63
13.26
16.83
19.39
20.97
21.61
21.39
20.46
19.02
17.29
15.5
13.86
12.57
11.73
11.39
11.43
11.69
11.96
12.07
11.92
11.47
10.69
9.52
7.88
5.72
3.11
0.21
-2.75
-5.51
-7.94
-10.04
-11.9
-13.74
-15.76
-18.19
-21.17
-24.72
-28.63
-32.41
-35.33
-36.56
-35.47
-31.8
-25.85
-18.34
-10.25
-2.5
4.22
9.6
13.61
16.36
17.95
18.39
17.7
15.98
13.53
10.82
8.37
6.63
5.72
5.44
5.37
5.05
4.22
2.91
1.49
0.45
0.34
1.6
4.46
8.89
14.55
20.69
26.37
30.61
32.74
32.53
30.19
26.1
20.58
13.69
5.34
-4.5
-15.55
-27.14
-38.29
-48.0
-55.39
-59.96
-61.52
-60.25
-56.61
-51.36
-45.44
-39.81
-35.22
-32.09
-30.43
-29.95
-30.26
-30.98
-31.87
-32.75
-33.45
-33.69
-33.12
-31.4
-28.36
-24.06
-18.73
-12.75
-6.46
-0.2
5.73
10.97
15.18
18.01
19.15
18.47
15.95
11.81
6.47
0.51
-5.39
-10.61
-14.68
-17.39
-18.67
-18.6
-17.29
-14.8
-11.17
-6.41
-0.45
6.86
15.7
26.19
38.17
51.09
64.03
75.86
85.57
92.53
96.57
97.92
97.03
94.26
89.84
83.82
76.21
67.09
56.7
45.41
33.68
21.93
10.49
-0.38
-10.46
-19.41
-26.82
-32.22
-35.21
-35.75
-34.15
-31.09
-27.42
-23.87
-20.9
-18.67
-17.07
-15.95
-15.16
-14.65
-14.36
-14.2
-13.99
-13.49
-12.4
-10.46
-7.49
-3.53
1.17
6.13
10.95
15.42
19.65
23.93
28.55
33.66
39.3
45.54
52.53
60.43
69.11
77.94
85.7
91.01
92.81
90.86
85.71
78.32
69.53
59.7
48.75
36.58
23.38
9.78
-3.39
-15.44
-26.04
-35.31
-43.48
-50.72
-56.97
-62.07
-65.97
-68.85
-71.05
-72.88
-74.44
-75.5
-75.66
-74.53
-71.95
-68.02
-63.01
-57.2
-50.75
-43.78
-36.39
-28.81
-21.39
-14.56
-8.65
-3.86
-0.2
2.34
3.77
4.14
3.51
2.07
0.16
-1.86
-3.63
-4.93
-5.67
-5.89
-5.65
-5.11
-4.47
-4.03
-4.09
-4.94
-6.66
-9.07
-11.73
-14.08
-15.62
-16.13
-15.77
-15.0
-14.46
-14.76
-16.31
-19.22
-23.33
-28.15
-32.97
-36.92
-39.16
-39.02
-36.15
-30.67
-23.12
-14.32
-5.17
3.5
11.06
17.17
21.74
24.87
26.81
27.87
28.4
28.77
29.36
30.43
32.18
34.52
37.21
39.86
42.12
43.79
44.87
45.49
45.79
45.86
45.63
44.96
43.71
41.78
39.18
36.01
32.44
28.63
24.7
20.59
16.16
11.19
5.55
-0.58
-6.75
-12.23
-16.32
-18.57
-18.96
-17.87
-15.87
-13.46
-10.89
-8.24
-5.49
-2.74
-0.21
1.74
2.89
3.17
2.73
1.91
1.02
0.31
-0.16
-0.52
-0.99
-1.83
-3.21
-5.1
-7.28
-9.43
-11.27
-12.71
-13.9
-15.16
-16.77
-18.85
-21.29
-23.82
-26.2
-28.3
-30.2
-32.09
-34.15
-36.4
-38.62
-40.35
-41.04
-40.22
-37.6
-33.25
-27.49
-20.83
-13.8
-6.87
-0.49
4.96
9.11
11.7
12.68
12.21
10.7
8.66
6.57
4.78
3.49
2.68
2.22
1.9
1.55
1.06
0.48
0.0
-0.16
0.07
0.52
0.8
0.43
-0.88
-3.12
-5.96
-8.85
-11.27
-12.93
-13.8
-14.11
-14.17
-14.29
-14.62
-15.12
-15.57
-15.62
-14.85
-12.91
-9.64
-5.11
0.33
6.11
11.69
16.62
20.7
23.89
26.26
27.86
28.69
28.72
27.98
26.64
24.96
23.27
21.78
20.55
19.5
18.51
17.49
16.44
15.41
14.45
13.54
12.53
11.19
9.34
6.87
3.85
0.47
-3.02
-6.37
-9.52
-12.48
-15.39
-18.47
-21.9
-25.8
-30.14
-34.65
-38.86
-42.03
-43.38
-42.26
-38.37
-31.99
-23.83
-15.02
-6.63
0.56
6.25
10.65
14.2
17.35
20.22
22.67
24.38
25.12
24.93
24.19
23.43
23.15
23.65
25.0
27.09
29.74
32.75
35.85
38.71
40.93
42.12
42.04
40.61
37.96
34.36
30.13
25.54
20.76
15.87
10.83
5.51
-0.28
-6.69
-13.68
-21.04
-28.23
-34.54
-39.15
-41.39
-40.87
-37.65
-32.26
-25.47
-18.19
-11.18
-4.91
0.46
4.94
8.68
11.73
14.09
15.72
16.61
16.86
16.69
16.33
15.99
15.8
15.84
16.11
16.63
17.44
18.51
19.77
21.01
21.96
22.33
21.93
20.78
19.11
17.23
15.47
14.03
12.92
12.07
11.32
10.5
9.49
8.15
6.38
4.11
1.47
-1.21
-3.42
-4.63
-4.48
-2.99
-0.53
2.29
4.8
6.57
7.39
7.32
6.5
5.1
3.16
0.67
-2.39
-6.02
-10.15
-14.69
-19.51
-24.5
-29.53
-34.43
-38.92
-42.55
-44.64
-44.41
-41.22
-34.87
-25.83
-15.28
-4.85
3.87
9.82
12.73
13.08
11.68
9.35
6.59
3.57
0.31
-3.15
-6.61
-9.84
-12.65
-14.96
-16.75
-17.88
-18.01
-16.69
-13.54
-8.48
-1.84
5.71
13.4
20.54
26.7
31.71
35.51
38.11
39.54
39.79
39.0
37.39
35.32
33.13
31.11
29.39
27.92
26.55
25.15
23.66
22.12
20.62
19.19
17.7
15.9
13.59
10.67
7.32
3.88
0.71
-1.97
-4.21
-6.23
-8.35
-10.82
-13.78
-17.23
-21.06
-25.04
-28.78
-31.77
-33.37
-33.11
-30.74
-26.5
-20.99
-15.01
-9.31
-4.4
-0.4
2.8
5.43
7.68
9.59
11.08
12.05
12.47
12.45
12.21
12.0
11.96
12.08
12.16
11.94
11.24
10.01
8.4
6.68
5.11
3.78
2.63
1.48
0.2
-1.19
-2.51
-3.49
-3.96
-3.98
-3.84
-4.0
-4.86
-6.65
-9.32
-12.57
-15.98
-19.02
-21.18
-21.96
-21.0
-18.15
-13.63
-7.94
-1.82
3.99
8.97
12.83
15.6
17.39
18.33
18.5
17.99
17.01
15.84
14.83
14.23
14.12
14.33
14.62
14.74
14.53
13.99
13.22
12.3
11.25
10.02
8.51
6.65
4.41
1.89
-0.8
-3.51
-6.15
-8.67
-11.08
-13.46
-15.83
-18.29
-20.86
-23.52
-26.08
-28.18
-29.33
-29.05
-27.02
-23.24
-18.09
-12.17
-6.19
-0.75
3.75
7.1
9.28
10.35
10.47
9.84
8.75
7.5
6.35
5.5
5.0
4.82
4.81
4.79
4.58
4.11
3.37
2.41
1.25
-0.13
-1.83
-3.91
-6.34
-8.97
-11.57
-13.95
-16.03
-17.83
-19.38
-20.7
-21.81
-22.74
-23.61
-24.54
-25.52
-26.32
-26.43
-25.26
-22.35
-17.68
-11.64
-4.98
1.46
7.0
11.22
14.03
15.46
15.67
14.83
13.15
10.88
8.38
6.02
4.12
2.9
2.34
2.26
2.39
2.48
2.45
2.44
2.66
3.29
4.3
5.42
6.24
6.36
5.64
4.19
2.37
0.55
-1.12
-2.67
-4.37
-6.48
-9.12
-12.16
-15.23
-17.82
-19.39
-19.48
-17.81
-14.4
-9.55
-3.82
2.12
7.65
12.3
15.84
18.24
19.54
19.82
19.18
17.78
15.81
13.6
11.43
9.56
8.11
7.07
6.34
5.83
5.43
5.08
4.69
4.13
3.28
2.07
0.53
-1.18
-2.89
-4.45
-5.83
-7.18
-8.63
-10.35
-12.4
-14.79
-17.43
-20.18
-22.79
-24.87
-25.93
-25.48
-23.21
-19.13
-13.63
-7.39
-1.2
4.27
8.62
11.75
13.86
15.24
16.13
16.68
16.93
16.94
16.85
16.86
17.22
18.04
19.24
20.6
21.82
22.67
23.04
22.95
22.48
21.68
20.59
19.18
17.44
15.37
12.99
10.35
7.51
4.53
1.4
-1.92
-5.57
-9.7
-14.34
-19.26
-23.9
-27.49
-29.25
-28.68
-25.77
-20.98
-15.09
-8.99
-3.38
1.21
4.54
6.52
7.18
6.68
5.25
3.18
0.82
-1.5
-3.46
-4.84
-5.52
-5.49
-4.91
-4.0
-3.04
-2.29
-1.9
-1.89
-2.22
-2.8
-3.52
-4.33
-5.23
-6.24
-7.42
-8.82
-10.47
-12.4
-14.6
-17.0
-19.43
-21.56
-22.88
-22.89
-21.22
-17.78
-12.93
-7.31
-1.66
3.37
7.4
10.33
12.23
13.23
13.43
12.89
11.69
10.0
8.1
6.31
4.9
4.03
3.67
3.7
3.88
4.02
3.98
3.71
3.18
2.37
1.25
-0.16
-1.82
-3.62
-5.45
-7.23
-8.97
-10.81
-12.9
-15.35
-18.09
-20.77
-22.88
-23.82
-23.13
-20.6
-16.38
-10.9
-4.74
1.45
7.11
11.77
15.11
17.03
17.62
17.18
16.11
14.73
13.28
11.87
10.59
9.52
8.83
8.56
8.65
8.88
8.98
8.73
8.05
6.98
5.62
4.07
2.37
0.51
-1.47
-3.52
-5.64
-7.87
-10.38
-13.3
-16.66
-20.3
-23.76
-26.42
-27.65
-26.95
-24.14
-19.46
-13.49
-6.97
-0.67
4.91
9.52
13.14
15.8
17.49
18.12
17.65
16.2
14.09
11.83
9.94
8.78
8.45
8.75
9.33
9.78
9.83
9.28
8.12
6.4
4.27
1.9
-0.55
-2.95
-5.15
-7.09
-8.8
-10.39
-12.08
-14.1
-16.61
-19.54
-22.55
-25.04
-26.31
-25.75
-23.08
-18.47
-12.49
-5.97
0.28
5.63
9.75
12.6
14.29
15.07
15.18
14.85
14.31
13.71
13.14
12.62
12.13
11.68
11.31
11.14
11.3
11.85
12.78
13.96
15.19
16.23
16.83
16.81
16.06
14.66
12.82
10.85
9.09
7.7
6.65
5.68
4.45
2.66
0.22
-2.7
-5.74
-8.49
-10.66
-12.17
-13.15
-13.94
-14.89
-16.26
-18.13
-20.38
-22.71
-24.64
-25.66
-25.24
-23.02
-18.92
-13.21
-6.53
0.29
6.43
11.34
14.83
17.01
18.16
18.53
18.24
17.32
15.88
14.11
12.35
10.92
9.99
9.53
9.33
9.17
8.89
8.47
8.0
7.51
6.95
6.19
5.08
3.51
1.52
-0.77
-3.16
-5.49
-7.68
-9.77
-11.92
-14.34
-17.22
-20.61
-24.34
-27.97
-30.86
-32.31
-31.78
-29.08
-24.4
-18.3
-11.52
-4.76
1.46
6.88
11.47
15.32
18.49
21.06
22.99
24.32
25.07
25.36
25.3
25.0
24.53
23.89
23.08
22.07
20.92
19.7
18.54
17.47
16.47
15.41
14.09
12.38
10.26
7.87
5.48
3.37
1.68
0.4
-0.67
-1.82
-3.4
-5.65
-8.72
-12.57
-16.96
-21.43
-25.34
-28.0
-28.82
-27.49
-24.12
-19.2
-13.5
-7.83
-2.81
1.22
4.19
6.2
7.41
7.96
7.96
7.54
6.88
6.19
5.65
5.38
5.35
5.47
5.6
5.63
5.58
5.5
5.47
5.49
5.44
5.1
4.23
2.71
0.57
-2.0
-4.72
-7.35
-9.77
-11.91
-13.8
-15.52
-17.18
-18.98
-21.08
-23.53
-26.1
-28.26
-29.32
-28.64
-25.91
-21.31
-15.39
-8.9
-2.57
3.07
7.72
11.3
13.79
15.27
15.88
15.8
15.28
14.51
13.65
12.82
12.08
11.52
11.27
11.38
11.83
12.48
13.08
13.39
13.25
12.61
11.49
9.93
7.92
5.41
2.48
-0.67
-3.75
-6.47
-8.73
-10.68
-12.64
-14.98
-17.91
-21.41
-25.2
-28.8
-31.63
-33.13
-32.86
-30.61
-26.54
-21.15
-15.17
-9.36
-4.29
-0.21
2.87
5.04
6.44
7.1
7.05
6.37
5.26
3.96
2.71
1.65
0.8
0.12
-0.46
-0.99
-1.48
-1.94
-2.39
-2.91
-3.55
-4.4
-5.51
-6.91
-8.53
-10.29
-12.08
-13.79
-15.39
-16.89
-18.36
-19.92
-21.66
-23.66
-25.96
-28.48
-30.98
-33.01
-34.03
-33.49
-31.04
-26.68
-20.74
-13.85
-6.77
-0.13
5.61
10.28
13.87
16.51
18.34
19.45
19.89
19.75
19.14
18.28
17.4
16.68
16.25
16.1
16.11
16.13
16.05
15.78
15.34
14.75
13.99
13.02
11.73
10.05
7.99
5.67
3.3
1.08
-0.87
-2.58
-4.23
-6.04
-8.22
-10.82
-13.8
-16.96
-20.04
-22.65
-24.32
-24.57
-23.05
-19.63
-14.59
-8.53
-2.27
3.43
8.01
11.33
13.47
14.71
15.26
15.21
14.61
13.59
12.37
11.37
10.88
10.99
11.48
11.93
11.96
11.45
10.63
9.83
9.28
8.89
8.31
7.12
5.1
2.38
-0.59
-3.32
-5.42
-6.8
-7.58
-8.05
-8.53
-9.26
-10.45
-12.24
-14.64
-17.52
-20.52
-23.08
-24.53
-24.29
-22.08
-17.99
-12.54
-6.45
-0.47
4.84
9.19
12.54
14.98
16.62
17.54
17.8
17.53
16.97
16.39
16.06
16.1
16.47
17.0
17.49
17.84
18.06
18.25
18.5
18.8
19.0
18.82
18.0
16.38
14.0
11.09
7.97
4.99
2.35
0.14
-1.75
-3.5
-5.33
-7.44
-9.99
-12.97
-16.2
-19.24
-21.48
-22.25
-21.11
-18.0
-13.28
-7.61
-1.72
3.84
8.74
12.94
16.51
19.51
21.95
23.83
25.16
26.03
26.54
26.79
26.81
26.56
26.02
25.24
24.35
23.52
22.89
22.5
22.29
22.15
21.98
21.69
21.24
20.6
19.75
18.71
17.52
16.31
15.18
14.17
13.24
12.27
11.1
9.59
7.69
5.49
3.31
1.63
1.05
2.09
5.02
9.78
16.02
23.29
31.19
39.43
47.72
55.6
62.43
67.46
70.08
70.11
67.82
63.87
58.95
53.54
47.77
41.49
34.49
26.66
18.07
8.92
-0.62
-10.45
-20.52
-30.78
-41.04
-50.9
-59.83
-67.35
-73.12
-77.08
-79.47
-80.67
-81.19
-81.41
-81.6
-81.76
-81.74
-81.33
-80.35
-78.67
-76.2
-72.78
-68.14
-61.97
-54.08
-44.51
-33.54
-21.65
-9.44
2.38
12.88
20.95
25.4
25.39
20.9
13.07
4.15
-2.97
-5.59
-2.01
8.03
23.23
41.05
58.33
72.03
79.98
81.31
76.57
67.46
56.2
44.99
35.54
28.9
25.43
24.89
26.53
29.23
31.69
32.72
31.56
28.02
22.51
15.89
9.32
4.15
1.74
3.21
8.97
18.41
29.84
40.94
49.5
54.2
54.98
52.88
49.43
45.93
43.04
40.7
38.47
35.93
32.94
29.71
26.59
23.82
21.4
19.01
16.24
12.72
8.32
3.2
-2.26
-7.64
-12.61
-17.04
-20.92
-24.35
-27.41
-30.2
-32.91
-35.71
-38.84
-42.54
-46.92
-51.97
-57.46
-62.92
-67.66
-70.89
-71.89
-70.26
-66.07
-59.83
-52.44
-44.8
-37.63
-31.3
-25.79
-20.95
-16.56
-12.52
-8.84
-5.53
-2.55
0.2
2.8
5.24
7.38
8.98
9.88
10.17
10.23
10.66
12.06
14.8
18.84
23.77
28.96
33.7
37.4
39.61
40.09
38.76
35.75
31.34
26.0
20.24
14.57
9.41
5.04
1.71
-0.36
-0.93
0.17
2.97
7.35
12.96
19.39
26.15
32.64
38.06
41.44
41.71
38.07
30.33
19.13
5.88
-7.61
-19.6
-28.78
-34.43
-36.34
-34.67
-29.93
-22.95
-14.88
-7.09
-0.77
3.28
4.87
4.4
2.58
0.07
-2.71
-5.64
-8.88
-12.62
-16.93
-21.63
-26.28
-30.22
-32.69
-33.13
-31.28
-27.4
-22.2
-16.65
-11.65
-7.75
-5.0
-2.96
-1.05
1.22
3.93
6.71
8.9
9.89
9.4
7.71
5.54
3.83
3.33
4.28
6.46
9.22
11.82
13.64
14.3
13.62
11.55
8.16
3.73
-1.13
-5.51
-8.34
-8.69
-6.24
-1.43
4.62
10.54
15.22
18.23
19.86
20.76
21.54
22.37
22.92
22.6
20.97
17.95
13.77
8.73
2.94
-3.69
-11.29
-19.77
-28.66
-37.18
-44.58
-50.35
-54.48
-57.32
-59.46
-61.47
-63.71
-66.3
-69.15
-72.01
-74.63
-76.84
-78.59
-79.97
-81.19
-82.48
-84.0
-85.86
-88.12
-90.7
-93.44
-95.95
-97.61
-97.7
-95.61
-91.13
-84.58
-76.75
-68.68
-61.24
-54.93
-49.78
-45.52
-41.83
-38.63
-36.06
-34.41
-33.89
-34.5
-35.92
-37.69
-39.27
-40.3
-40.57
-40.09
-38.94
-37.22
-35.0
-32.29
-29.11
-25.47
-21.4
-16.94
-12.23
-7.5
-3.2
0.04
1.51
0.64
-2.74
-8.26
-15.01
-21.68
-26.91
-29.51
-28.77
-24.54
-17.31
-8.04
1.98
11.47
19.41
25.25
28.96
30.9
31.6
31.47
30.71
29.29
27.16
24.39
21.27
18.24
15.66
13.72
12.28
11.12
9.94
8.59
7.06
5.45
3.86
2.31
0.8
-0.72
-2.31
-4.03
-5.97
-8.26
-10.94
-13.9
-16.83
-19.16
-20.22
-19.43
-16.42
-11.21
-4.19
3.95
12.41
20.42
27.47
33.28
37.83
41.23
43.56
44.92
45.33
44.87
43.71
42.16
40.55
39.22
38.32
37.81
37.53
37.33
37.1
36.88
36.78
36.85
36.98
36.93
36.44
35.29
33.5
31.31
28.98
26.77
24.76
22.97
21.54
20.85
21.55
24.29
29.43
36.74
45.34
53.92
61.12
65.91
67.73
66.43
62.08
54.89
45.42
34.8
24.7
17.09
13.52
14.57
19.56
26.92
34.85
42.06
48.1
53.22
57.88
62.35
66.42
69.68
71.74
72.43
71.82
70.04
67.18
63.29
58.35
52.37
45.45
37.75
29.5
21.06
12.85
5.34
